time(sec),semimem,bifem,vasmed,vaslat,rf,medgas,latgas,tfl,tibant,peronl,soleus,addmagnus,gmax,gmed, sartorius
1.806670,0.000068,-0.002038,-0.000165,-0.002971,0.008024,-0.000061,-0.009638,-0.033578,-0.016992,-0.000835,-0.000124,-0.000750,-0.001449,-0.000206,0.000084,
1.807503,-0.002117,0.002851,-0.036059,-0.008373,0.057219,-0.010494,-0.015335,-0.072522,0.016626,-0.055646,-0.000378,0.006143,-0.016435,-0.009136,0.003111,
1.808337,0.001033,0.002668,-0.069616,0.006120,0.099865,-0.014519,0.000150,-0.237182,-0.353452,-0.140748,-0.002219,0.007245,-0.002173,0.007552,-0.001785,
1.809170,-0.002073,0.019290,0.085925,0.005013,0.118269,-0.003570,0.031657,-0.444289,-0.475513,-0.114615,-0.009516,-0.003058,-0.013715,-0.029185,0.003559,
1.810003,0.004281,0.058103,0.001480,0.020862,0.129206,0.005738,0.030993,-0.582158,-0.483320,-0.051021,-0.018201,-0.020767,-0.000373,0.007599,-0.000081,
1.810837,-0.000196,0.103877,-0.076685,0.020754,0.150038,0.017234,-0.047292,-0.635637,-0.886862,-0.061725,-0.020845,-0.016101,-0.005147,-0.012712,0.004540,
1.811670,0.005860,0.107952,0.029029,0.027315,0.174300,0.012158,-0.081116,-0.620029,-1.001306,-0.041195,-0.023748,0.019658,0.009066,0.005855,0.003235,
1.812503,-0.000896,0.100080,0.014651,0.030660,0.179930,0.027136,-0.067263,-0.539121,-0.592491,-0.028086,-0.037935,0.011457,0.013907,-0.006588,0.000430,
1.813337,0.003189,0.087107,-0.008293,0.026085,0.281861,0.010745,-0.062187,-0.439502,-0.372083,-0.022593,-0.025442,0.021715,0.007257,0.000008,0.002535,
1.814170,-0.001566,0.083338,-0.000453,0.018335,0.261437,0.011196,-0.135927,-0.351209,0.074267,-0.032223,-0.023375,0.010463,0.012171,-0.001978,-0.002655,
1.815003,0.000555,0.056369,-0.045163,0.007570,0.181647,0.021155,-0.083869,-0.272005,0.350883,0.018377,-0.020919,-0.000174,0.006380,0.001339,0.003018,
1.815837,0.001007,0.033594,0.028914,0.018660,0.059983,0.031298,0.083747,-0.111998,0.170784,0.050919,-0.018542,0.013301,0.015523,0.009807,-0.002724,
1.816670,-0.001276,0.011113,0.047197,0.018939,-0.056943,0.020700,0.099111,0.162302,0.001278,-0.003726,0.000839,0.031195,0.013965,-0.004345,0.002703,
1.817503,0.002097,0.001340,0.030723,0.023645,-0.099045,-0.001047,0.193061,0.272548,0.102038,-0.020735,0.001367,0.013823,0.010855,0.007560,-0.002066,
1.818337,-0.003062,-0.020853,0.017467,0.009710,-0.136932,0.010128,0.239827,0.288024,0.345186,0.022027,0.001208,-0.022659,0.004965,-0.009561,0.002043,
1.819170,0.002166,-0.042763,-0.022193,0.005631,-0.168141,-0.010348,0.089834,0.275910,0.464154,0.047523,0.021737,-0.021204,0.016727,0.008991,-0.002214,
1.820003,-0.004648,-0.039934,-0.031816,-0.005420,-0.147788,-0.004825,0.007927,0.332080,0.541802,0.049673,0.020246,-0.017846,0.004924,-0.008805,-0.000801,
1.820837,0.002891,-0.042695,0.048244,-0.008995,-0.135363,0.008052,-0.040584,0.366715,0.236637,0.044223,0.010642,0.058647,0.006616,0.008160,-0.000586,
1.821670,-0.001919,-0.038793,-0.026473,-0.016436,-0.169290,-0.005465,-0.052397,0.338511,-0.213938,0.057453,-0.007357,0.092433,-0.007824,-0.002062,-0.001419,
1.822503,0.001826,-0.047098,-0.053340,-0.015440,-0.161801,-0.004051,0.038044,0.284731,0.153774,0.053847,-0.007934,0.076159,0.003998,0.008594,0.002193,
1.823337,-0.001438,-0.033827,0.002270,-0.017660,-0.099877,-0.024808,0.047731,0.219271,0.167054,-0.019044,-0.004949,0.016056,-0.018216,0.002443,-0.003180,
1.824170,-0.001488,-0.032173,-0.041531,-0.018270,0.004336,-0.015111,-0.052077,0.184075,-0.340386,-0.094191,0.018567,-0.065167,-0.012086,-0.002508,0.001379,
1.825003,-0.000462,-0.037926,0.010871,-0.012597,0.056921,-0.022432,-0.099076,0.165210,-0.526424,-0.093882,0.028617,-0.088340,-0.015178,0.008543,-0.004882,
1.825837,-0.002173,-0.039845,-0.010963,-0.020073,0.081165,-0.033045,-0.104601,0.140170,-0.444068,-0.082768,0.041710,-0.054243,-0.023855,-0.004226,0.002602,
1.826670,0.002531,-0.041317,-0.032873,-0.006570,0.028047,-0.024679,-0.102105,0.119989,-0.054359,-0.025555,0.034835,-0.037966,-0.007474,0.007708,-0.002112,
1.827503,-0.002674,-0.042206,-0.000379,-0.008759,-0.029673,-0.024187,-0.094514,0.029311,0.086819,0.051557,0.018549,-0.046994,-0.012752,-0.039422,0.001575,
1.828337,0.003266,-0.045254,0.001840,-0.003794,-0.064384,-0.014321,-0.035156,-0.089902,0.437174,0.016167,0.002800,-0.047609,0.003317,0.012923,-0.001140,
1.829170,-0.002231,-0.032589,0.016672,-0.006058,-0.095305,-0.006668,-0.024899,-0.162589,1.083886,0.032807,-0.013609,-0.037064,-0.003690,-0.004933,0.000423,
1.830003,0.002807,-0.026603,0.016966,-0.003529,-0.048260,-0.007316,0.035592,-0.170924,0.867737,0.061995,-0.015697,-0.013063,-0.000680,0.010924,0.000160,
1.830837,-0.003899,-0.014886,0.039049,0.003155,-0.023161,-0.022195,0.100701,-0.083803,0.310543,-0.019371,-0.011832,0.003805,0.005616,-0.002676,-0.002999,
1.831670,-0.000222,-0.015531,-0.021283,-0.005864,0.000933,-0.008103,-0.054470,0.000786,0.210723,0.020368,-0.011911,-0.001246,-0.002057,0.002640,0.000558,
1.832503,-0.002033,0.007243,-0.008837,-0.004967,0.019795,-0.000261,-0.119993,-0.040310,-0.021125,0.025139,-0.027813,-0.006683,0.010166,0.003372,-0.003206,
1.833337,-0.000940,0.016444,0.008037,-0.001791,0.048425,0.003949,-0.035565,-0.146821,-0.561356,-0.096131,-0.024118,0.023830,0.002145,0.000590,0.002338,
1.834170,0.000770,0.028030,-0.003305,0.008543,0.043843,0.003637,0.032218,-0.233586,-0.612675,-0.118361,-0.016980,0.041027,0.006224,0.010928,-0.001577,
1.835003,0.000499,0.050034,0.014368,0.008644,0.061788,0.013783,0.027848,-0.238617,-0.431400,0.051535,-0.006687,0.028907,0.008974,-0.004983,0.004274,
1.835837,0.005878,0.054780,0.007045,0.012101,0.106424,0.030135,0.042148,-0.225481,-0.308172,0.238389,-0.001005,0.013430,0.004748,0.014047,0.000816,
1.836670,-0.000947,0.056404,0.038971,0.003518,0.101339,0.033794,0.034715,-0.216678,-0.336162,0.172268,-0.002208,0.000716,0.002552,-0.005530,0.003308,
1.837503,0.004590,0.049050,0.025769,0.007786,0.098138,0.029963,0.045707,-0.187686,-0.413963,-0.005540,-0.002653,0.000240,0.001628,0.012581,0.000152,
1.838337,-0.001010,0.050812,-0.022034,0.002196,0.105847,0.023385,0.034560,-0.158366,-0.185167,-0.046636,-0.007366,0.010027,-0.009156,-0.045298,0.001572,
1.839170,0.003920,0.029273,-0.039281,0.009512,0.106017,0.020170,0.027079,-0.186710,-0.219536,-0.029623,0.005786,0.040308,-0.002019,0.008669,0.002379,
1.840003,-0.001831,0.010601,-0.009495,0.006271,0.106897,0.000637,0.053794,-0.101665,-0.244364,-0.060569,0.008123,0.051868,-0.015404,-0.001450,-0.001852,
1.840837,0.001266,-0.017189,0.034359,-0.026412,0.093689,0.015900,0.075492,0.065192,-0.057707,-0.084262,0.016126,0.041803,-0.016034,0.001095,0.001694,
1.841670,-0.001284,-0.025659,0.029258,-0.042565,0.026871,0.011172,0.078742,0.213774,0.188099,-0.077076,0.010110,0.022923,-0.014577,0.003489,-0.003309,
1.842503,-0.001243,-0.031696,0.005714,-0.013154,-0.039390,0.005056,0.008450,0.237270,0.704366,-0.066502,0.010824,0.012455,-0.013766,-0.004034,0.002822,
1.843337,0.000169,-0.021834,-0.018124,0.023264,-0.110742,0.004706,-0.031338,0.231495,0.477761,-0.043259,0.006814,-0.003961,-0.000311,0.007976,-0.003717,
1.844170,-0.003155,-0.010387,-0.014795,0.042476,-0.164297,-0.001953,-0.029811,0.274542,-0.208181,0.027725,0.010737,-0.032909,-0.006699,-0.008391,0.002098,
1.845003,0.001147,-0.008934,-0.004908,0.073521,-0.179910,-0.010215,-0.007445,0.298765,0.189860,0.047703,0.004723,-0.020094,0.013470,0.012629,-0.002468,
1.845837,-0.003254,0.002216,0.006037,0.075405,-0.134224,-0.009121,-0.021187,0.283483,0.305522,-0.020580,0.005390,-0.015287,0.007109,-0.007241,0.001199,
1.846670,0.003326,0.000022,0.005828,0.051838,-0.103671,-0.008617,0.016362,0.164196,0.356776,0.012524,0.011953,-0.015618,0.014665,0.013178,-0.000326,
1.847503,-0.006120,-0.002253,0.029097,-0.008421,-0.132475,-0.004154,0.062745,0.015378,0.102932,0.044762,0.002571,-0.021119,0.007765,-0.012328,-0.004299,
1.848337,-0.001533,0.006663,-0.032652,-0.065501,-0.088005,-0.002171,0.012340,-0.132316,-0.168281,0.074899,0.011858,-0.028465,0.013884,0.005660,-0.002020,
1.849170,-0.003513,0.051154,-0.021338,-0.115844,-0.044381,-0.013683,-0.029145,-0.187838,-0.275168,0.020523,0.014764,-0.039977,0.015633,-0.001829,-0.002949,
1.850003,0.000913,0.050008,-0.017987,-0.152239,0.006527,-0.012624,-0.034272,-0.042158,-0.271927,-0.002259,0.012179,-0.031117,0.009351,0.002132,0.000849,
1.850837,0.001368,0.033546,-0.023360,-0.171136,0.059730,-0.001156,-0.023358,0.100617,-0.177193,0.015091,-0.002026,-0.020231,0.014724,0.003505,-0.002680,
1.851670,-0.000164,0.020335,-0.006480,-0.163502,0.088575,-0.002037,-0.030298,0.109910,-0.118687,0.039912,0.001269,-0.002617,0.008405,-0.003815,0.004318,
1.852503,0.003338,0.011849,-0.011440,-0.125189,0.094788,-0.009029,-0.062580,0.027554,-0.047735,-0.006838,-0.007715,0.016509,0.007937,0.009165,-0.001350,
1.853337,-0.000638,-0.022029,-0.000086,-0.046112,0.081771,-0.005059,-0.096558,-0.120197,-0.000188,-0.057105,-0.011147,0.015145,0.006754,-0.007757,0.003817,
1.854170,0.004847,-0.060149,0.003632,0.065495,0.071842,-0.004480,-0.111934,-0.205466,0.047465,-0.034588,-0.020489,0.026834,0.000575,0.014082,0.000745,
1.855003,-0.001570,-0.047942,0.010251,0.190246,0.049317,0.000328,-0.103664,0.016804,0.060298,-0.014964,-0.028280,0.016761,-0.007555,-0.033807,0.002254,
1.855837,0.003305,-0.073970,0.009558,0.265102,0.039246,-0.002995,0.005324,0.136158,0.056331,-0.018667,-0.019120,0.016182,-0.010780,0.013370,-0.000050,
1.856670,-0.002193,-0.101822,0.008276,0.265612,0.019367,-0.004531,0.046900,-0.002875,0.032680,-0.036526,-0.018806,0.005849,0.001878,-0.005369,-0.000214,
1.857503,0.002534,-0.099204,-0.001980,0.238415,-0.004822,-0.005494,0.044131,-0.130498,0.016210,-0.004738,-0.012236,0.010307,-0.000415,0.007024,0.001457,
1.858337,-0.001739,-0.021461,-0.008839,0.173833,-0.031955,-0.009079,0.037784,-0.162445,0.038205,-0.011325,-0.012531,0.022976,-0.015072,0.002023,-0.001751,
1.859170,0.000094,0.083904,-0.008176,0.066139,-0.022680,-0.013441,0.028959,-0.134211,-0.100012,-0.057330,0.000302,0.036210,-0.006244,0.003279,0.002523,
1.860003,0.000099,0.142534,0.012224,-0.020671,0.001765,-0.020698,0.033248,-0.114997,-0.275931,-0.082605,-0.001197,0.032907,-0.015747,-0.006450,-0.002354,
1.860837,-0.000504,0.125094,0.014981,-0.083647,0.024251,-0.001381,0.080741,-0.020787,-0.173577,-0.008388,-0.000078,0.018244,-0.014596,-0.004124,0.003454,
1.861670,0.001643,0.090904,0.016579,-0.080778,0.037559,0.003639,0.058243,-0.003135,0.018403,0.048926,-0.000600,0.000760,-0.011948,0.008272,-0.003094,
1.862503,-0.002923,0.087544,0.004963,-0.104337,0.039037,-0.002104,-0.024460,-0.038864,0.174512,0.046182,0.003967,-0.001847,-0.011316,-0.009088,0.001959,
1.863337,0.002586,0.074402,-0.002473,-0.126810,0.020991,-0.002868,-0.007282,0.001576,0.266891,0.083809,0.003266,-0.007730,-0.000189,0.007882,-0.001835,
1.864170,-0.003349,0.064281,0.000524,-0.089397,0.023483,0.012665,0.013657,0.020555,0.250873,0.096524,0.004641,-0.026189,-0.012286,-0.008262,0.000172,
1.865003,0.002924,0.018875,-0.002225,-0.019658,0.026905,0.012935,0.025548,-0.037124,0.208112,0.085568,0.011011,-0.027757,0.003817,0.011906,0.000349,
1.865837,-0.001483,-0.061050,0.007428,0.027703,0.023553,0.001934,0.017102,-0.052540,0.212918,0.048365,0.005460,-0.052847,0.001585,-0.006840,-0.000998,
1.866670,0.002197,-0.151064,-0.002265,-0.029168,0.017163,0.014783,0.022800,0.011608,0.205759,0.022314,0.001740,-0.042380,0.011999,0.003857,0.002080,
1.867503,-0.000990,-0.165697,0.004391,-0.106702,-0.021637,0.017017,0.025697,0.082613,0.211311,0.004070,-0.007759,-0.010203,0.008210,0.000815,-0.001709,
1.868337,0.001011,-0.172356,0.000220,-0.123146,-0.033254,0.015523,0.018305,0.115547,0.018032,-0.055188,0.008871,-0.003120,0.002585,0.000818,0.002589,
1.869170,-0.000195,-0.205942,0.002755,-0.070884,-0.050563,0.019932,-0.011143,0.104397,-0.215153,-0.157897,0.014873,0.021492,0.018476,0.007067,-0.003034,
1.870003,-0.001707,-0.212231,0.002978,-0.023003,-0.051798,0.009047,-0.001630,0.078095,-0.157515,-0.148567,0.011936,0.000210,-0.001634,-0.004087,0.002022,
1.870837,0.000135,-0.128453,0.008959,0.006328,-0.045707,-0.003997,0.008676,0.024829,0.054749,-0.047492,0.006939,-0.032726,0.009095,0.013435,-0.004063,
1.871670,-0.004893,-0.013594,-0.003123,-0.016120,-0.039955,-0.003171,-0.000845,-0.001599,-0.547083,0.017149,0.010876,-0.048873,0.000469,-0.006591,-0.000539,
1.872503,0.000759,0.075493,0.014019,-0.030786,-0.022970,0.003138,-0.021670,-0.014378,-1.341615,0.005525,0.011239,-0.021308,0.003011,0.014113,-0.002360,
1.873337,-0.003053,0.117662,0.023594,-0.071785,-0.035356,-0.005057,-0.033680,0.009308,-0.809179,0.007960,0.006658,-0.017105,-0.003262,-0.043625,0.000241,
1.874170,0.004881,0.140740,0.009109,-0.116004,-0.028131,-0.001665,-0.030939,0.042068,-0.075817,0.057247,0.008118,-0.013308,-0.015905,0.009862,0.002074,
1.875003,-0.000768,0.158659,0.012970,-0.080965,-0.036074,0.001411,-0.027504,0.048722,0.471244,0.098136,0.002799,-0.009548,-0.005771,-0.004258,0.001157,
1.875837,0.003498,0.138344,-0.027393,0.032655,-0.025897,-0.006059,-0.033000,0.029330,0.866071,0.098565,0.006871,0.005986,-0.015886,0.003888,0.003287,
1.876670,-0.000479,0.119186,-0.031269,0.147731,-0.021980,-0.016148,-0.035074,-0.005526,0.702196,0.035470,-0.003019,0.030908,-0.003375,0.000580,-0.001912,
1.877503,-0.000491,0.061517,-0.026433,0.141361,-0.007188,-0.003229,-0.035410,-0.042222,0.329368,-0.001296,-0.008112,0.042074,-0.005164,-0.002889,0.001430,
1.878337,0.000257,0.025601,-0.015480,0.088853,0.008766,-0.003171,-0.019667,-0.083925,0.181402,-0.030988,-0.014520,0.037695,0.002394,0.006756,-0.003776,
1.879170,-0.002505,0.015379,0.002508,0.062453,0.007630,-0.003168,-0.010119,-0.075523,0.132252,-0.032576,-0.003789,0.019330,0.001290,-0.005577,0.001084,
1.880003,0.002052,0.008073,-0.008779,0.085880,0.022277,-0.000180,-0.004774,-0.058650,0.201742,-0.011278,-0.006600,0.006990,0.006775,0.011993,-0.002146,
1.880837,-0.002699,0.024837,-0.015912,0.162090,0.026223,0.034620,0.011635,-0.026275,0.247178,0.009378,-0.005416,0.021133,0.016096,-0.007367,0.002250,
1.881670,0.003077,0.045461,-0.018268,0.194850,0.032355,0.003105,0.015164,-0.001738,0.203689,0.017154,-0.003451,0.041162,0.018103,0.013403,-0.000224,
1.882503,-0.002440,0.093825,-0.002097,0.199920,0.033877,-0.019053,0.025053,0.013585,0.045467,-0.030549,-0.005442,0.037922,0.018430,-0.012823,0.000047,
1.883337,0.003028,0.127425,-0.005679,0.207852,0.032687,-0.006537,0.033535,0.019378,-0.099935,-0.009551,-0.009721,0.037332,0.030189,0.006729,0.001079,
1.884170,-0.001880,0.128322,-0.001068,0.134146,0.032663,-0.018868,0.031471,0.022488,-0.222133,0.000624,-0.018886,0.040887,0.014455,-0.005147,0.000278,
1.885003,0.002365,0.068661,0.010388,0.028729,0.029899,-0.003413,0.022537,0.013275,-0.346432,-0.013319,-0.007767,0.042290,0.021569,0.003276,0.002681,
1.885837,0.000355,0.015961,0.016811,-0.052519,0.030552,-0.006417,0.020024,-0.009517,-0.367488,-0.042243,-0.006732,0.020740,0.000554,0.000111,-0.001631,
1.886670,0.000328,-0.002532,-0.000846,-0.140383,0.038638,0.009343,0.021045,-0.073551,-0.265378,-0.023294,0.000238,-0.000625,-0.000232,-0.004266,0.003364,
1.887503,0.000759,-0.040582,0.001845,-0.206437,0.018798,-0.011530,0.006539,-0.023542,-0.337829,0.001708,-0.001813,-0.020644,0.000582,0.005252,-0.003390,
1.888337,-0.002625,-0.144761,0.004921,-0.277938,0.013639,-0.000683,-0.005477,0.137549,-0.332299,-0.004318,0.005885,-0.033584,-0.016237,-0.009785,0.001148,
1.889170,0.001316,-0.209491,0.014203,-0.332241,-0.020453,0.001746,-0.000500,0.100209,-0.100885,-0.000634,0.008224,-0.032490,-0.007515,0.009370,-0.002857,
1.890003,-0.002676,-0.246354,-0.004466,-0.368505,-0.040120,0.003992,-0.020636,-0.009446,0.002800,0.002390,0.009175,-0.042454,-0.026661,-0.010677,0.000768,
1.890837,0.003252,-0.262334,-0.020703,-0.361012,-0.039858,-0.005546,-0.022089,-0.050959,-0.047984,-0.005310,0.011027,-0.035310,-0.009742,0.011556,-0.001251,
1.891670,-0.003636,-0.274605,0.021661,-0.341408,-0.036289,-0.004898,-0.015688,0.034791,-0.089824,-0.026012,0.006001,-0.043317,-0.030910,-0.007244,-0.000520,
1.892503,0.001836,-0.255463,0.004079,-0.254822,-0.022394,0.002881,-0.019743,0.121835,-0.012074,-0.006294,0.004933,-0.032502,-0.014628,0.008303,0.000214,
1.893337,-0.002149,-0.156120,0.005293,-0.098265,-0.021219,-0.003880,-0.004500,0.080234,0.106259,-0.001530,-0.003009,-0.024281,-0.031228,-0.002230,-0.001185,
1.894170,0.000734,-0.081122,0.016154,0.049910,0.001101,0.007318,-0.013447,-0.008158,0.161310,0.014851,0.001711,-0.015493,-0.032173,0.002967,0.001846,
1.895003,-0.001110,0.000342,0.013165,0.132699,-0.005041,0.016942,0.000712,-0.006551,0.172814,0.011283,-0.000744,-0.015181,-0.022478,-0.004335,-0.002901,
1.895837,-0.001882,0.078046,-0.001541,0.159598,0.013437,0.004237,-0.010244,0.037218,0.149521,0.034175,0.000464,-0.016051,-0.029437,-0.003386,0.001055,
1.896670,-0.000210,0.161601,0.002240,0.266417,0.010122,-0.009436,0.007389,-0.056976,0.121837,0.005422,0.001977,-0.009125,-0.013965,0.010086,-0.004444,
1.897503,-0.003112,0.212397,0.027703,0.333190,0.018554,0.011931,0.011944,-0.133555,0.113292,-0.035127,0.005783,-0.006628,-0.010979,-0.006493,0.002880,
1.898337,0.004214,0.204168,0.013186,0.326579,0.022834,-0.001855,0.027217,-0.143133,0.163727,-0.034507,0.003335,-0.004147,0.018605,0.006082,-0.000014,
1.899170,0.000099,0.187999,-0.006385,0.364419,0.024755,0.003220,0.030309,-0.085442,0.298008,-0.016348,-0.003991,0.005027,0.016830,-0.009566,0.003660,
1.900003,0.005602,0.158184,-0.020655,0.413433,0.027637,0.033715,0.043027,0.003633,0.451566,0.021502,-0.001701,0.041342,0.033765,0.010039,0.002458,
1.900837,-0.001557,0.135394,-0.009505,0.419248,0.006720,0.002652,0.017904,0.051905,0.394707,0.049305,-0.006427,0.045293,0.032198,-0.008651,0.000498,
1.901670,0.002886,0.108989,0.001251,0.393212,-0.000960,-0.003758,0.010012,0.030079,0.172833,0.075921,0.001362,0.020855,0.032439,0.005620,0.000834,
1.902503,-0.001977,0.087831,0.008080,0.320399,-0.017111,-0.008101,0.008352,-0.018188,-0.472631,0.058639,-0.020298,0.005580,0.040146,-0.004217,-0.002031,
1.903337,0.001557,0.045806,0.003019,0.185857,-0.012938,0.000152,-0.000971,-0.025270,-0.586899,0.040037,-0.009763,0.016113,0.028928,0.000442,0.002129,
1.904170,0.001583,0.038866,-0.002513,0.000404,-0.013201,-0.001278,-0.008508,0.002466,-0.109516,0.040569,0.000617,0.005934,0.027475,0.003116,-0.001184,
1.905003,-0.000982,0.048471,0.001681,-0.246354,-0.016567,-0.007050,-0.026168,0.027846,-0.118656,0.010648,0.004431,0.005885,0.018695,-0.005962,0.002221,
1.905837,0.000116,0.037896,-0.004412,-0.415571,-0.005070,-0.010142,-0.026643,0.006989,-0.452116,-0.043463,0.004423,0.015072,0.009600,0.007540,-0.002917,
1.906670,-0.002447,0.017697,-0.011507,-0.468021,-0.009873,-0.009789,-0.030382,-0.002807,-0.532056,-0.014340,0.009744,0.016275,-0.000737,-0.008108,0.001865,
1.907503,0.000483,-0.009826,0.002195,-0.423043,-0.009037,-0.011023,-0.019684,-0.024804,-0.028444,-0.024353,0.010626,0.000972,-0.009279,0.013929,-0.003423,
1.908337,-0.006505,-0.042539,0.015619,-0.327092,-0.008999,-0.013838,-0.010109,-0.026564,0.283998,-0.089671,0.007980,-0.015706,-0.015282,-0.011799,-0.003370,
1.909170,-0.002203,-0.084117,-0.011684,-0.223676,-0.006579,-0.020058,0.000181,-0.021112,0.294911,-0.046713,0.004093,-0.020004,-0.011595,0.001987,-0.003471,
1.910003,-0.003090,-0.086356,-0.013198,-0.114590,0.000487,-0.010602,-0.017030,-0.001637,0.173614,-0.030967,0.012692,-0.025476,-0.021891,-0.006662,-0.000065,
1.910837,0.006397,-0.089400,-0.014261,-0.053907,-0.004143,0.007215,-0.041284,0.000831,0.077669,-0.052495,0.022330,-0.021875,-0.009881,0.004672,0.004865,
1.911670,0.001232,-0.083336,-0.006636,-0.048791,-0.000344,0.014175,-0.068445,0.007906,0.047891,-0.067645,0.001113,-0.050682,-0.022126,-0.001852,0.000788,
1.912503,0.002015,-0.090135,-0.025572,-0.043782,0.004859,0.016544,-0.052261,0.012356,0.019343,-0.034135,-0.010527,-0.035883,-0.014250,0.001844,0.003420,
1.913337,0.000048,-0.084905,-0.024373,-0.056297,-0.007310,0.014639,-0.011483,0.000994,0.084849,-0.005970,-0.023273,-0.006603,-0.012367,-0.009266,-0.002651,
1.914170,-0.002535,-0.068528,-0.020276,-0.078518,-0.007861,-0.002669,0.024305,0.013879,0.077211,0.009388,-0.012408,0.031383,-0.008413,-0.004815,0.000428,
1.915003,0.000371,-0.043848,-0.014491,-0.079839,-0.014342,-0.003175,0.065800,0.024378,0.062987,0.017137,-0.014858,0.055662,0.004457,0.010467,-0.002909,
1.915837,-0.000085,-0.020403,-0.002429,-0.098882,0.005298,0.000620,0.065563,0.047659,0.071952,0.042771,-0.015669,0.054045,-0.001696,-0.007365,0.003970,
1.916670,0.007234,-0.022965,0.009822,-0.110605,0.013680,0.004757,0.066940,0.045774,0.068874,0.060355,0.002707,0.052640,0.012019,0.011576,0.001380,
1.917503,-0.000863,-0.014182,0.036468,-0.063080,0.012494,-0.002962,0.048881,0.021961,0.049033,0.043038,0.005332,0.012853,-0.002778,-0.008547,0.002902,
1.918337,0.004460,-0.006271,0.025189,0.027892,0.013959,-0.005746,-0.021567,-0.019183,0.020225,0.046969,0.006093,-0.006404,0.011580,0.009324,0.001363,
1.919170,-0.001361,0.009330,0.024372,0.091125,0.007712,0.011671,-0.029815,-0.085589,-0.000446,0.072600,-0.003853,-0.017027,-0.004117,-0.005307,0.000426,
1.920003,0.004102,0.019988,0.019998,0.133713,0.007656,0.003213,-0.009587,-0.159416,-0.010667,0.064834,0.002048,-0.005123,0.008721,0.007223,0.002990,
1.920837,-0.001274,0.049715,0.024291,0.141219,-0.012743,0.003216,-0.001332,-0.198120,-0.025051,-0.002590,0.000611,-0.020889,0.008896,0.000677,-0.002084,
1.921670,-0.000706,0.097667,-0.000879,0.162662,0.010318,0.002986,0.001957,-0.070366,0.009552,-0.015711,0.002981,-0.006493,-0.007404,0.002828,0.001379,
1.922503,-0.002584,0.098015,-0.013841,0.180505,0.023450,-0.006785,0.028335,0.258575,-0.052358,-0.026284,-0.005483,-0.007098,-0.010113,0.006960,-0.005998,
1.923337,-0.007519,0.029955,-0.005728,0.160842,0.038731,0.001371,0.039176,0.417539,-0.105253,-0.031132,-0.004173,-0.008209,-0.016006,-0.004933,-0.003005,
1.924170,-0.004674,-0.027968,-0.003994,0.144184,0.022614,-0.005659,0.039185,0.329533,-0.074708,-0.026322,-0.003152,-0.022339,0.001480,0.011094,-0.008714,
1.925003,-0.008851,-0.058694,-0.002369,0.112859,0.005639,0.013169,0.047102,0.139266,-0.019025,-0.007311,-0.000123,-0.031330,-0.007232,-0.009201,-0.003287,
1.925837,-0.000364,-0.100852,-0.006338,0.102240,-0.008506,0.001089,0.041384,-0.025652,-0.006396,-0.000531,-0.000115,-0.020233,-0.010844,0.010019,-0.005033,
1.926670,-0.002405,-0.125314,-0.007038,0.093631,-0.031849,-0.014741,-0.051392,-0.021290,-0.245519,0.031061,-0.004647,-0.030706,-0.004761,-0.009067,0.001462,
1.927503,0.006239,-0.102649,-0.021859,0.109171,-0.023167,-0.007471,-0.021442,-0.037733,-0.319915,0.054471,0.010854,-0.013162,-0.009866,0.013496,0.004145,
1.928337,0.002070,0.002679,-0.007764,0.114947,-0.032173,-0.004267,0.045147,-0.122698,-0.147402,-0.027837,0.011450,0.015305,0.004074,-0.038107,0.002407,
1.929170,0.002789,0.049961,-0.000300,0.067227,-0.025421,0.010735,0.006297,-0.153611,-0.068135,-0.037517,0.009351,0.025697,-0.002899,0.004124,0.002203,
1.930003,-0.001823,0.055037,0.012285,0.032095,-0.028671,0.003042,-0.019905,-0.153301,-0.087630,-0.024949,-0.000932,0.009617,0.004791,-0.000955,-0.002571,
1.930837,-0.000476,0.043811,0.008326,-0.018707,-0.017783,0.013696,-0.058034,-0.085993,-0.091604,-0.028456,0.001810,0.022291,0.006259,-0.003296,0.002278,
1.931670,0.000577,0.042475,0.010865,-0.076548,-0.015309,-0.000034,-0.085818,-0.054290,0.066119,-0.017994,0.000946,0.042046,0.011902,0.005497,-0.002016,
1.932503,-0.000343,0.058138,0.008151,-0.145797,-0.021069,0.014639,-0.093028,-0.052139,0.206254,-0.003951,0.003492,0.040793,0.007697,-0.006774,0.004382,
1.933337,0.005768,0.100638,0.011322,-0.192855,-0.010164,0.030549,-0.052494,-0.071021,0.199866,-0.016393,0.002428,0.024321,0.003886,0.012079,0.001028,
1.934170,0.002735,0.100295,0.013050,-0.195429,-0.019342,0.011529,-0.050106,-0.067304,0.120952,-0.015495,0.000036,0.015506,0.011467,-0.008744,0.006537,
1.935003,0.006579,0.058368,-0.005895,-0.144972,0.000856,-0.007790,-0.088740,-0.067986,0.334638,-0.024904,0.006536,0.015710,0.003443,0.010716,0.002902,
1.935837,-0.000859,0.037129,-0.006302,-0.109382,0.013065,-0.029547,-0.059266,-0.066933,0.455753,-0.014093,-0.002036,-0.006361,0.005458,-0.007819,0.002483,
1.936670,0.004225,0.001637,-0.013355,-0.037392,0.030877,-0.032841,0.042313,-0.080424,-0.180124,0.019547,-0.002340,-0.019133,0.017516,0.009658,0.001311,
1.937503,-0.001365,-0.033937,-0.001578,0.086578,0.036448,-0.024235,0.072905,-0.051328,-0.704234,0.009810,-0.003694,-0.023682,0.007729,-0.005362,-0.000463,
1.938337,0.003274,-0.042315,-0.007293,0.216775,0.042137,-0.008154,0.069625,0.019819,-0.315597,0.007226,-0.001221,-0.037262,0.011343,0.005867,0.003567,
1.939170,0.000591,-0.007677,-0.001515,0.289155,0.037718,-0.007332,0.058601,0.061841,0.235541,-0.037467,0.000797,-0.043094,-0.008725,0.001996,-0.000790,
1.940003,0.001265,-0.021486,-0.006834,0.219408,0.028520,-0.005595,0.035438,0.006925,0.898213,-0.035133,0.005097,-0.018753,-0.001667,-0.003700,0.003246,
1.940837,0.001024,-0.015611,-0.007999,0.158692,0.009794,-0.008280,0.030379,-0.112030,0.610843,-0.000850,-0.001603,0.009820,-0.004727,0.006786,-0.002941,
1.941670,-0.002426,0.028174,-0.009290,0.007650,0.016765,-0.012180,0.006979,-0.129838,-0.404909,0.007729,-0.001764,0.025383,-0.007384,-0.008507,0.001398,
1.942503,-0.001152,0.033484,-0.013764,-0.211120,0.028651,-0.009818,-0.019331,-0.003539,-0.488343,0.008636,-0.007296,0.010848,-0.009499,0.008710,-0.005712,
1.943337,-0.008430,-0.001762,-0.004644,-0.358098,0.020243,-0.005462,-0.016496,0.170049,0.199168,0.012880,-0.011643,-0.014400,-0.018716,-0.008856,-0.003979,
1.944170,-0.001068,-0.056453,-0.005436,-0.317982,0.014085,0.002565,0.093919,0.398465,0.329400,0.038029,0.000142,-0.012052,0.005843,0.014023,-0.004390,
1.945003,-0.006229,-0.052870,0.006437,-0.209346,-0.003748,0.009687,0.097071,0.541073,0.004325,0.042294,-0.002157,-0.037030,-0.002669,-0.008867,-0.003131,
1.945837,-0.000260,-0.021782,0.006705,-0.151177,0.015685,0.006591,0.040711,0.333014,-0.286366,0.049644,0.000376,-0.043851,0.005931,0.006550,-0.002188,
1.946670,-0.004220,-0.010130,0.026184,-0.141110,-0.002275,0.011432,-0.030464,0.041949,-0.418886,0.062531,-0.002179,-0.021210,0.010875,-0.006408,-0.002932,
1.947503,-0.000561,-0.039518,0.027331,-0.068866,-0.001818,0.017640,-0.007831,-0.116356,-0.068034,0.080351,0.004978,0.006493,0.004825,0.002001,-0.000177,
1.948337,-0.003930,-0.029311,0.018073,0.001162,-0.025706,0.017271,0.077462,-0.154265,0.048769,0.026511,0.004757,0.009670,0.009279,0.004770,-0.005671,
1.949170,-0.000898,0.009732,0.000538,0.022916,-0.029112,0.029843,0.156571,-0.128097,-0.041417,0.000497,0.002653,0.023125,0.001793,-0.012446,0.003019,
1.950003,0.003044,0.020936,-0.001020,0.037649,-0.025031,0.028330,0.079784,-0.111574,-0.087669,0.005817,-0.000265,0.027796,0.000969,0.004062,-0.000505,
1.950837,0.000420,0.002258,-0.002935,0.043140,-0.040950,-0.002697,-0.065951,-0.110365,-0.096623,-0.015057,-0.001857,0.029797,-0.003884,-0.010709,0.004360,
1.951670,0.004966,-0.012931,-0.011317,0.066021,-0.051097,0.004795,-0.150804,-0.162647,-0.046062,-0.046258,-0.001049,0.031427,-0.005452,0.009617,0.000372,
1.952503,0.000357,-0.011239,-0.006183,0.059533,-0.057309,-0.002776,-0.340505,-0.217021,-0.021936,-0.065512,-0.001346,0.030553,0.001905,-0.017664,0.003554,
1.953337,0.004753,-0.003527,-0.014547,0.068774,-0.036392,0.003100,-0.263216,-0.189591,-0.010238,-0.068396,-0.001978,0.026111,-0.003030,0.015631,0.001703,
1.954170,-0.002901,0.029267,-0.010016,0.075507,-0.020837,0.004392,-0.033236,-0.059933,-0.010222,-0.054452,-0.005380,0.013217,-0.005761,-0.003413,-0.000144,
1.955003,0.000744,0.034496,0.005272,0.120231,0.000660,0.028390,0.070496,0.004091,0.011371,-0.049311,0.001121,-0.007064,-0.014987,0.009737,-0.000918,
1.955837,-0.005979,0.021018,0.017885,0.208632,0.004321,0.032650,0.042027,0.061363,-0.010759,-0.073112,-0.009781,-0.029092,-0.019872,-0.003665,-0.005652,
1.956670,-0.003080,0.018912,0.003410,0.219117,0.006650,0.016542,-0.030907,0.071436,0.003816,-0.037499,-0.004508,-0.013966,-0.011712,0.001239,-0.001681,
1.957503,-0.001847,-0.007806,0.006861,0.104373,0.012715,0.006752,0.037094,-0.042606,0.054203,0.038311,-0.005176,-0.011288,-0.021171,0.004920,-0.004109,
1.958337,0.002142,-0.046434,-0.002887,0.010392,0.006834,0.008301,0.099853,-0.194254,0.032858,0.030426,0.006228,-0.019852,-0.003379,-0.005137,0.005831,
1.959170,0.007213,-0.059693,-0.014844,-0.005675,0.008577,-0.019557,0.061244,-0.080938,0.026482,-0.000565,0.007434,0.003511,-0.000438,0.007080,0.003575,
1.960003,0.004816,-0.057757,-0.006421,-0.003434,0.014928,-0.020823,0.052802,0.205318,0.031447,-0.010400,0.007300,0.022622,-0.007456,-0.008326,0.008041,
1.960837,0.007924,-0.050790,-0.029796,0.009054,0.006699,-0.014718,0.058049,0.316751,0.063050,0.005967,-0.003629,0.025105,0.013119,0.012732,0.003207,
1.961670,0.000510,-0.025149,-0.015837,-0.019332,0.006506,-0.030827,0.055167,0.214126,0.133992,0.034658,-0.005509,0.010636,-0.002483,-0.010160,0.004484,
1.962503,0.004396,-0.022883,-0.003597,-0.036740,0.010415,-0.024419,0.031030,0.105088,0.230119,0.061031,0.007156,-0.000809,0.008923,-0.006506,0.001493,
1.963337,-0.001632,-0.006083,-0.004205,-0.046885,0.013570,-0.034980,-0.008415,0.032332,0.143493,0.030466,0.002327,-0.023439,0.007218,-0.008654,0.000794,
1.964170,0.005005,0.017077,-0.008340,-0.032291,0.028962,-0.024934,0.036618,0.033817,0.116157,0.038788,0.009304,-0.008134,0.013012,0.007963,0.003757,
1.965003,0.001570,0.021941,0.014070,-0.034246,0.017851,-0.023680,0.096543,0.031380,-0.031137,0.047389,0.005046,-0.005109,0.017619,-0.001822,0.000004,
1.965837,0.000877,0.010249,0.007036,-0.044767,0.023429,-0.027803,0.074305,-0.007063,0.119293,0.066947,0.013357,-0.004150,0.017230,-0.000164,0.002197,
1.966670,-0.002111,0.042478,0.005970,-0.039249,0.017927,-0.025184,0.108297,-0.052408,0.119806,0.017343,0.009517,-0.007402,0.021466,0.006832,-0.004926,
1.967503,-0.002212,0.085564,0.003407,-0.035663,0.021634,-0.043068,0.100860,-0.068991,0.035010,0.026436,0.017021,-0.011057,0.005153,-0.002346,0.001063,
1.968337,-0.000494,0.081716,0.014158,-0.023911,0.008752,-0.034992,0.065879,-0.082329,0.079059,0.024939,0.004738,-0.005200,0.014375,0.008160,-0.005320,
1.969170,-0.008252,0.066211,0.020379,0.079654,0.004897,-0.028347,-0.024866,-0.072769,-0.080145,-0.009746,-0.013146,-0.015009,-0.001528,-0.010783,-0.003021,
1.970003,-0.005193,0.055552,0.007885,0.212658,0.002567,-0.035723,-0.152897,-0.084126,-0.333707,-0.035669,-0.036788,-0.015761,-0.000902,0.009490,-0.009282,
1.970837,-0.011155,0.036474,0.006744,0.149155,-0.014901,-0.015236,-0.251206,-0.075983,-0.766505,-0.060932,-0.030184,-0.021492,-0.002670,-0.018909,-0.006862,
1.971670,-0.003098,0.007609,0.000631,0.013400,-0.014431,0.004496,-0.199975,-0.071234,-0.492947,-0.062352,-0.010581,-0.009916,-0.004092,0.011899,-0.006139,
1.972503,-0.006960,0.003897,0.010453,-0.119169,-0.020477,0.028418,-0.103535,-0.052024,-0.113175,-0.037345,-0.001486,-0.002234,-0.008378,-0.005355,-0.004059,
1.973337,0.000906,-0.012209,-0.002241,-0.208655,-0.013554,0.035984,-0.037667,-0.025968,-0.055363,-0.019334,0.014492,0.009802,-0.007753,0.005318,0.000903,
1.974170,-0.000551,-0.006240,-0.000831,-0.267329,-0.008049,0.040816,-0.135523,-0.003420,-0.183866,-0.047845,0.014456,0.004078,-0.004819,-0.003841,-0.000406,
1.975003,0.002553,0.002256,-0.000272,-0.267621,-0.001721,0.053929,-0.278171,0.034418,-0.199474,-0.090071,0.020678,0.007919,-0.009959,-0.000332,0.004069,
1.975837,0.001982,0.003033,0.004162,-0.215210,-0.007132,0.052907,-0.200958,0.064850,-0.031255,-0.098863,0.008890,0.000279,-0.007922,0.008521,-0.001081,
1.976670,0.001245,-0.012017,0.001938,-0.141697,-0.003426,0.056516,-0.076089,0.063967,0.034644,-0.017302,0.006094,-0.001741,-0.012600,-0.001696,0.005967,
1.977503,0.005688,-0.023535,-0.000386,-0.054716,0.019424,0.050090,0.010283,0.036551,0.279525,0.042007,0.007248,0.012090,-0.016523,0.013419,0.000342,
1.978337,0.001427,-0.038711,0.004509,-0.026582,0.031008,0.062585,0.021588,0.028740,0.572824,0.051754,0.008684,0.010196,-0.002606,-0.018156,0.006308,
1.979170,0.008301,-0.050388,-0.008408,0.026645,0.032966,0.034900,0.041632,0.000767,0.641262,0.030101,-0.009745,0.017607,0.003663,0.012677,0.003727,
1.980003,0.001592,-0.069105,-0.012896,0.280315,0.019004,0.032122,0.084318,-0.016940,0.436590,0.023284,-0.026987,0.010676,0.007773,-0.007303,0.004959,
1.980837,0.006482,-0.088917,-0.013841,0.455221,0.010611,0.009768,0.326644,-0.031187,0.158159,0.063193,-0.021225,0.019465,0.003617,0.016661,0.003446,
1.981670,0.000082,-0.067711,-0.001636,0.410405,0.001047,0.017488,0.618739,-0.046338,-0.106118,0.041334,-0.022525,0.017576,0.003402,-0.000424,0.001632,
1.982503,0.003607,-0.056599,-0.019465,0.312065,-0.020379,0.020694,0.573283,-0.037463,-0.096254,0.015377,-0.015019,0.014468,0.009873,0.002780,0.003179,
1.983337,-0.000643,-0.033908,-0.006602,0.199142,-0.023313,-0.011090,0.268930,-0.013971,0.009612,0.042834,-0.020377,0.009678,0.006091,-0.024234,-0.002133,
1.984170,0.001067,-0.029991,-0.006688,0.061595,0.000489,-0.010689,-0.013966,-0.005871,0.027201,0.061129,-0.012050,-0.000156,0.012962,-0.006394,0.002939,
1.985003,0.000347,-0.021949,-0.010112,-0.119009,0.006793,-0.011181,-0.079908,-0.009155,0.007945,0.022783,0.009350,-0.001309,-0.006744,0.004572,-0.002508,
1.985837,-0.002498,-0.010839,-0.004819,-0.261464,-0.017960,-0.027793,-0.122670,-0.057055,0.017749,-0.009209,0.054961,-0.002028,-0.014420,-0.007969,0.001670,
1.986670,0.000166,-0.029001,-0.001187,-0.307298,-0.055729,-0.024779,-0.097843,-0.150463,-0.014987,0.017616,0.070310,0.007596,-0.002586,0.010151,-0.004211,
1.987503,-0.006310,0.014514,0.003836,-0.299507,-0.061305,-0.015219,-0.067379,0.019779,-0.012181,0.030135,0.063941,-0.005403,-0.000078,-0.007595,-0.001532,
1.988337,-0.001935,0.082474,-0.001042,-0.250872,-0.056299,-0.010962,0.020606,0.322599,-0.035066,0.019316,0.040281,0.000014,0.009434,0.016001,-0.007078,
1.989170,-0.009747,0.091251,-0.000868,-0.173865,-0.039427,-0.043991,0.006366,0.244985,-0.065366,-0.017163,-0.007535,-0.002252,-0.005020,-0.007714,-0.005740,
1.990003,-0.002280,0.056547,-0.000832,-0.085228,0.006931,-0.036253,-0.097409,0.072257,0.011188,-0.022570,-0.020911,-0.008389,0.002341,0.006709,-0.003774,
1.990837,-0.005320,0.048218,0.008676,-0.035425,0.028841,-0.039540,-0.177906,-0.078280,0.090085,-0.032484,-0.057369,-0.027402,-0.011965,-0.007409,-0.004686,
1.991670,-0.002995,0.044409,0.007511,-0.044096,0.045154,-0.040774,-0.237649,-0.118625,0.044574,-0.021143,-0.089438,-0.025874,0.002572,0.005017,-0.002983,
1.992503,-0.005833,0.077268,0.012453,0.041080,0.046198,-0.046238,-0.190169,-0.024418,0.061365,-0.025033,-0.058516,-0.021500,-0.009737,-0.003926,-0.006597,
1.993337,-0.000863,0.107064,0.070646,0.140642,0.026722,-0.019780,-0.165031,0.128293,0.027388,-0.032266,-0.020140,-0.008933,-0.001737,-0.001431,0.002630,
1.994170,0.003370,0.113132,0.037887,0.188087,0.024510,-0.023344,-0.175347,0.103844,0.136035,-0.040710,0.005256,-0.003880,-0.008672,0.004418,-0.001087,
1.995003,0.001222,0.087007,-0.017474,0.180840,-0.000783,-0.034628,-0.258456,0.014776,0.410476,0.010060,0.024701,0.000997,-0.006887,-0.012167,0.004834,
1.995837,0.005509,0.052566,-0.013200,0.180704,-0.031520,-0.034366,-0.407263,0.007198,0.039910,0.002103,0.007841,0.007850,0.001637,0.007256,0.000252,
1.996670,0.004481,0.027125,0.005838,0.140524,-0.041677,-0.019907,-0.388058,-0.025315,-0.650517,-0.059835,0.029762,-0.001921,-0.001104,-0.009484,0.008054,
1.997503,0.013395,-0.017319,-0.011946,0.087745,-0.046285,-0.000799,-0.199190,-0.087709,-0.429062,-0.049994,0.038598,-0.003880,0.017242,0.016194,0.009014,
1.998337,0.004173,-0.052767,-0.046570,0.050259,-0.049702,0.018922,0.176415,-0.094292,-0.255059,-0.068139,0.003079,-0.008077,0.008302,-0.001919,0.007249,
1.999170,0.006566,-0.075470,-0.032281,0.027259,-0.045618,0.033394,0.500869,-0.095927,-0.801515,-0.054874,-0.017883,0.009159,0.023041,0.010639,0.004588,
2.000003,0.000734,-0.059700,0.026489,0.003432,-0.026514,0.015400,0.428864,-0.063054,-0.941134,-0.001917,-0.023972,-0.014406,0.009118,-0.006249,0.001942,
2.000837,0.002084,-0.041969,0.017580,-0.009076,-0.029748,0.020739,0.369335,-0.056740,-0.463005,0.003955,-0.000379,-0.049758,0.019173,0.003568,0.002970,
2.001670,-0.003275,-0.051906,0.025062,-0.021318,-0.015945,0.026782,0.568088,-0.092875,0.261255,0.025045,0.002549,-0.052018,0.008034,0.003929,-0.004540,
2.002503,-0.006039,-0.103867,0.008954,-0.037790,-0.004191,0.034551,0.465257,-0.083272,0.157085,0.051639,0.008012,-0.015677,0.003316,-0.010049,-0.002892,
2.003337,-0.004843,-0.096064,-0.022966,-0.037042,0.008684,0.027521,0.102161,-0.018467,0.315167,0.072492,0.010365,0.035172,-0.007653,0.001613,-0.008115,
2.004170,-0.004575,-0.074399,-0.042620,-0.042334,0.005228,0.048520,-0.065627,0.036703,0.434582,0.092991,0.015408,0.053387,-0.003364,-0.010829,0.000538,
2.005003,0.002235,-0.150973,-0.048330,-0.038310,0.012369,0.036612,-0.002311,0.024886,0.287478,0.062368,0.009861,0.058506,-0.011748,0.013509,-0.001201,
2.005837,-0.001965,-0.165959,-0.014150,-0.048975,0.007723,0.019512,-0.020015,-0.021538,0.218023,0.017435,-0.007959,0.064568,-0.008090,-0.012195,0.000548,
2.006670,0.004942,-0.075783,-0.009504,-0.049949,0.034343,0.036520,-0.250208,-0.101619,-0.272109,0.005528,-0.005713,0.061801,-0.015134,0.009257,0.002117,
2.007503,0.000674,-0.005772,0.014904,-0.056359,0.053166,0.048044,-0.242858,-0.007491,-0.770057,-0.034055,-0.009352,0.008233,-0.009995,-0.007583,0.003043,
2.008337,0.007351,0.044950,0.028564,-0.059819,0.073631,0.020281,-0.107327,0.214653,-0.525067,-0.038579,-0.000123,-0.024129,-0.010226,0.008545,0.005456,
2.009170,0.002384,0.058651,0.026757,-0.056352,0.142996,-0.025495,-0.105422,0.243659,0.110771,-0.051364,0.022109,-0.034543,-0.008354,-0.006294,0.001875,
2.010003,0.004234,0.038817,0.027957,-0.053559,0.217718,-0.042080,-0.221086,0.017005,0.348699,-0.054853,0.031081,-0.026392,-0.002854,-0.002508,0.004503,
2.010837,0.000537,0.054848,0.048809,-0.042701,0.263851,-0.053234,-0.327341,-0.154145,0.524726,-0.003267,0.025549,-0.023356,-0.004562,0.000221,-0.001311,
2.011670,-0.000620,0.067656,-0.013061,-0.055761,0.254008,-0.049002,-0.271578,-0.199719,1.440433,0.031062,0.020750,-0.020584,-0.000051,-0.004211,0.001521,
2.012503,-0.002596,0.093074,-0.083941,-0.068101,0.177584,-0.072692,-0.081093,-0.070559,1.540874,0.056061,-0.023624,0.004929,-0.003053,0.010289,-0.005924,
2.013337,-0.007069,0.113053,-0.024656,-0.068347,0.109279,-0.100331,-0.103930,0.185752,1.368611,0.076901,-0.052207,0.025375,-0.005022,-0.013955,-0.002283,
2.014170,-0.004424,0.086186,-0.003195,-0.033978,0.058194,-0.038224,-0.249303,0.326152,0.863360,0.057553,-0.018942,0.035530,-0.005345,0.007131,-0.008001,
2.015003,-0.010983,0.056191,-0.007186,-0.007162,-0.000876,0.000863,-0.175278,0.189824,-0.326207,0.053381,-0.004266,0.022386,0.000405,-0.008696,-0.007206,
2.015837,-0.005838,0.026032,0.044102,0.022576,-0.091279,-0.002919,0.000617,-0.007779,-0.064182,0.076108,-0.007134,0.011544,0.016808,0.013484,-0.007981,
2.016670,-0.010195,0.017115,0.056532,-0.010892,-0.185966,0.037990,0.153207,0.047823,0.094964,0.048649,-0.012459,-0.003746,0.001297,-0.004148,-0.007576,
2.017503,-0.002835,0.015427,0.022637,-0.017291,-0.259979,0.070301,0.420809,-0.012947,-0.865552,-0.051610,-0.009120,0.004413,0.015214,0.012718,-0.002930,
2.018337,-0.003739,0.007544,0.014905,0.026958,-0.298230,0.082218,0.599459,-0.198800,-1.112177,-0.126432,0.027740,0.010665,0.014007,-0.000617,-0.003956,
2.019170,0.000224,-0.049422,-0.009383,0.067761,-0.336230,0.089704,0.436493,-0.268508,-0.979908,-0.123506,0.040279,0.009041,0.017820,-0.004633,0.001410,
2.020003,0.000669,-0.060291,-0.016345,0.113412,-0.318800,0.042183,0.305283,-0.240553,-0.976297,-0.100233,0.063586,0.006394,0.026200,0.000365,-0.002083,
2.020837,0.003407,-0.076841,-0.021846,0.147167,-0.309414,0.001833,0.253101,-0.105028,-0.803162,-0.062890,0.120395,-0.004755,0.016565,-0.006529,0.006022,
2.021670,0.006769,-0.028183,-0.014590,0.183084,-0.266208,0.025635,0.288283,0.122488,-0.328570,-0.061854,0.062545,-0.004261,0.010436,0.012829,0.002998,
2.022503,0.004354,0.028990,-0.002204,0.166843,-0.214096,0.025297,0.310360,0.245602,-0.095252,-0.064942,-0.051820,-0.021102,-0.005308,-0.008699,0.008386,
2.023337,0.008686,0.109235,0.016841,0.132604,-0.144076,-0.013319,0.043375,0.159936,-0.168707,-0.016628,-0.080164,-0.023973,0.010384,0.008382,0.002817,
2.024170,0.002378,0.187726,-0.013605,0.069036,-0.060080,-0.005175,-0.157982,0.032719,-0.422690,0.039743,-0.038186,-0.026268,-0.023811,-0.011154,0.005068,
2.025003,0.006038,0.093149,-0.042730,0.016060,0.012017,0.007051,-0.239459,-0.047855,-0.207490,0.053501,-0.075697,-0.016499,-0.004434,0.007154,0.003854,
2.025837,-0.000165,-0.005699,0.008049,-0.021361,0.097773,-0.001010,-0.291894,-0.060880,0.476363,0.074839,-0.147495,-0.023758,-0.027607,-0.010701,0.001930,
2.026670,0.001478,-0.034476,0.020476,-0.045753,0.155617,0.001820,-0.336063,-0.026647,0.915228,0.090167,-0.098205,-0.031044,-0.043884,0.003943,0.000675,
2.027503,-0.002916,-0.045029,0.001264,-0.078881,0.168685,-0.028354,-0.363716,-0.011825,0.406369,0.040576,-0.036423,-0.042561,-0.016025,-0.003388,-0.003111,
2.028337,0.000390,-0.095152,-0.035093,-0.115508,0.217600,-0.034098,-0.422258,-0.031356,0.014088,0.001282,-0.029083,-0.047550,-0.031146,-0.001568,0.001257,
2.029170,-0.000198,-0.131705,-0.020698,-0.134530,0.215259,-0.031671,-0.371821,-0.032120,0.097028,-0.014454,-0.035847,-0.037232,-0.014316,0.006808,-0.001630,
2.030003,-0.001934,-0.093448,-0.007434,-0.121252,0.224058,-0.026794,-0.222027,-0.020198,0.530332,0.015173,-0.031484,-0.026173,-0.013132,-0.000082,0.001351,
2.030837,-0.000240,-0.032966,0.012321,-0.084937,0.216928,-0.035549,-0.050811,-0.023946,0.495830,0.043608,0.006340,-0.020238,-0.018734,0.014077,-0.004296,
2.031670,-0.005037,-0.037009,-0.006605,-0.075429,0.203822,-0.026247,0.027936,-0.011442,0.052312,0.022919,0.070961,-0.033691,-0.002118,-0.007935,-0.000109,
2.032503,0.001981,-0.042777,-0.024550,-0.064746,0.197691,0.022135,0.090637,-0.016530,-0.320871,0.019005,0.192793,-0.039753,-0.010884,0.015819,-0.002573,
2.033337,-0.002230,-0.018891,0.039804,-0.051297,0.155113,0.047476,0.103899,-0.001944,-0.729820,0.068620,0.163747,-0.017144,0.018907,-0.039478,0.000974,
2.034170,0.006125,-0.031158,0.065138,-0.022800,0.145677,0.032989,0.118895,0.000918,-0.374090,0.071343,0.067475,0.002909,0.017070,0.012638,0.003201,
2.035003,0.001405,-0.039473,0.058302,-0.002973,0.091660,0.026448,0.164858,-0.000434,0.189509,0.027918,0.040722,0.015109,0.031212,-0.004379,0.003797,
2.035837,0.008321,-0.037594,0.030114,0.012395,0.057493,0.040852,0.152328,0.001813,0.662661,0.065742,0.027197,0.053966,0.049885,-0.003249,0.007482,
2.036670,0.004280,-0.017435,-0.010747,0.028904,0.007305,0.028792,0.090131,0.000059,0.626664,-0.083750,-0.009562,0.057229,0.043174,0.000008,0.003721,
2.037503,0.003920,-0.000959,-0.019440,0.052009,-0.023413,-0.050566,0.001292,0.015080,0.270422,-0.165894,-0.035529,0.032205,0.033039,-0.000255,0.006387,
2.038337,0.002196,0.015973,-0.001172,0.074816,-0.055974,-0.190584,-0.010139,0.016988,0.008208,-0.056329,-0.068114,0.001590,0.004053,0.009240,-0.001617,
2.039170,-0.000447,0.004396,-0.002503,0.067707,-0.076626,-0.216005,-0.012387,0.015256,-0.065690,-0.021923,-0.064764,-0.056501,0.008684,-0.002942,0.002431,
2.040003,0.001169,0.017292,-0.024673,0.068977,-0.083088,-0.129023,0.011762,-0.054503,-0.185364,0.015008,-0.063198,-0.083719,-0.011227,0.014622,-0.002381,
2.040837,-0.005021,0.070723,-0.018109,0.051624,-0.114903,-0.038480,-0.082545,-0.053440,-0.511831,0.005202,-0.049872,-0.035773,-0.003980,-0.010545,-0.000960,
2.041670,-0.000566,0.152373,-0.025400,0.064955,-0.103287,-0.081289,-0.125244,0.014312,-0.681995,-0.060311,0.010421,0.106418,-0.015688,0.002122,-0.003386,
2.042503,-0.006378,0.195305,-0.014822,0.248927,-0.118764,-0.082781,-0.008557,0.081287,-0.710284,-0.089786,0.106188,0.232678,-0.010066,-0.003834,-0.003411,
2.043337,-0.001256,0.169206,-0.003324,0.720932,-0.107647,0.042909,0.009660,0.122579,-0.710194,-0.116288,0.056712,0.242725,-0.007899,0.012482,-0.003487,
2.044170,-0.005658,0.122196,-0.003429,0.743430,-0.121518,0.057387,-0.088929,0.082299,-0.698826,-0.116266,-0.029879,0.243478,-0.001438,-0.007982,-0.004536,
2.045003,-0.001735,0.057085,-0.014378,0.259597,-0.095515,0.081141,-0.135172,-0.033352,-0.542734,-0.030616,-0.055071,0.223888,-0.002158,0.000082,-0.001835,
2.045837,-0.004293,0.038482,-0.003217,-0.318620,-0.079647,0.223200,-0.201819,-0.077796,0.156358,0.016514,-0.031132,0.149254,0.017072,-0.004372,-0.005307,
2.046670,-0.003876,-0.024176,0.009303,-0.729393,-0.068355,0.335162,-0.162390,-0.116871,0.611348,0.038150,0.001286,0.098245,0.008770,-0.000746,-0.000917,
2.047503,-0.000791,-0.064277,0.013574,-0.975608,-0.052534,0.277613,0.350630,-0.141801,0.709793,0.049604,-0.023187,0.066685,0.031964,0.018286,-0.004231,
2.048337,-0.000685,-0.087376,-0.010083,-1.039690,-0.017556,0.196610,0.729362,0.105663,0.824383,0.064199,-0.061277,-0.000402,0.014159,-0.000683,0.004128,
2.049170,0.003312,-0.129990,0.041492,-0.760135,-0.008260,0.052040,0.691038,0.329875,0.771223,0.074042,-0.063757,-0.051308,0.021412,0.013454,-0.002388,
2.050003,-0.001159,-0.159808,0.017252,-0.271911,0.014162,-0.095524,0.511464,0.303699,0.606181,0.100376,-0.002000,-0.144309,-0.009606,-0.034519,0.002773,
2.050837,0.003912,-0.172583,-0.014125,-0.252122,0.022485,-0.141728,-0.126552,0.163924,0.835771,0.123843,0.151409,-0.239837,-0.000768,-0.003763,0.000236,
2.051670,-0.003288,-0.147117,0.003380,-0.511784,0.010117,-0.091031,-0.545677,0.051462,0.938271,0.084337,0.189052,-0.321623,-0.025458,-0.014212,-0.000839,
2.052503,0.001354,-0.127668,-0.001623,-0.257375,0.011239,-0.003898,-0.382020,-0.088231,0.233032,0.068526,0.104782,-0.321167,-0.017283,0.019127,-0.000901,
2.053337,-0.004886,-0.077458,-0.026671,0.268838,-0.000214,-0.189524,0.188887,-0.223323,-0.323555,0.060683,0.098757,-0.265280,-0.036182,0.013702,-0.003149,
2.054170,0.000428,-0.000139,-0.030845,0.578114,-0.008774,-0.241472,0.540300,-0.285958,-0.380011,0.043847,0.034078,-0.204374,-0.028712,0.012241,0.001430,
2.055003,-0.002375,0.041734,-0.021749,0.697412,-0.007954,-0.021405,0.475161,-0.179117,0.050419,-0.003832,-0.105756,-0.096488,-0.035725,-0.011656,-0.004094,
2.055837,-0.004131,-0.013632,-0.010803,0.825290,0.001733,0.166050,0.021033,-0.025188,0.072365,-0.062865,-0.153823,-0.023208,-0.027258,-0.011295,-0.000941,
2.056670,-0.005897,-0.099254,-0.059626,0.900838,0.006973,0.109039,-0.261668,-0.002990,-0.224732,-0.087826,-0.139267,-0.033573,-0.052847,0.002034,-0.009548,
2.057503,-0.008273,-0.195163,-0.024913,0.917547,0.013235,-0.025870,-0.377215,0.034147,-0.343691,-0.060456,-0.125396,-0.016970,-0.051083,-0.010120,-0.003508,
2.058337,-0.001024,-0.179480,0.026222,0.921024,0.048119,-0.076836,-0.428724,0.030123,-0.334916,-0.067174,-0.065951,-0.021597,-0.049670,0.012515,-0.004478,
2.059170,-0.003977,-0.075003,0.042224,0.744864,0.069654,-0.078700,-0.411379,-0.036501,-0.459620,-0.077670,0.006760,-0.073042,-0.041061,-0.014746,-0.000393,
2.060003,0.005155,0.055612,0.021892,0.458658,0.061811,-0.064312,-0.355096,-0.083235,-0.617598,-0.038747,0.107283,-0.094491,-0.025032,0.012927,0.001736,
2.060837,0.003492,0.219254,0.041229,0.332605,0.077837,-0.042101,-0.274170,-0.121870,-0.105975,0.006668,0.101251,-0.113035,-0.012652,-0.005937,0.006495,
2.061670,0.013321,0.362042,0.046079,-0.096311,0.075305,-0.038193,-0.209533,-0.222778,0.284712,0.084617,-0.098698,-0.008978,0.017963,0.008164,0.010992,
2.062503,0.009623,0.379394,0.044688,-0.537177,0.053288,-0.011564,-0.135833,-0.227285,0.221049,0.062308,-0.224996,0.095661,0.022468,-0.005807,0.009893,
2.063337,0.016206,0.240383,0.030039,-0.662149,0.059379,-0.016248,-0.069618,-0.026763,-0.164706,-0.033748,-0.140837,0.160322,0.049738,0.000066,0.015867,
2.064170,0.012779,0.164894,0.041957,-0.698013,0.055562,0.004809,-0.003266,0.174004,-0.628924,-0.093414,0.009672,0.179961,0.064107,0.001826,0.009844,
2.065003,0.008500,0.178675,-0.068642,-0.817800,0.039217,0.065487,0.035032,0.125671,-0.631371,-0.021649,0.064729,0.158190,0.064377,-0.003730,0.010441,
2.065837,0.007641,0.191011,-0.154066,-0.787380,-0.011202,0.059427,-0.010941,0.006284,-0.484202,0.060375,0.085000,0.151210,0.077108,0.008119,0.002858,
2.066670,0.001962,0.164864,-0.045104,-0.685969,-0.048432,0.026760,-0.006330,-0.055412,-0.276980,0.059573,0.082779,0.108199,0.053773,-0.009778,0.006015,
2.067503,0.001685,0.085752,0.232436,-0.637571,-0.079379,-0.008555,0.097540,-0.124935,-0.050958,0.052239,0.052042,0.091190,0.046533,0.012159,-0.002824,
2.068337,-0.007691,0.042625,0.163858,-0.726435,-0.058773,-0.015843,0.192041,-0.008427,-0.465282,-0.000681,0.030551,0.091498,0.023002,-0.009228,-0.003522,
2.069170,-0.005721,-0.039305,-0.108495,-0.577753,-0.046782,0.010392,0.225625,0.246244,-0.267724,-0.088793,0.041251,0.130888,0.036076,0.011812,-0.009051,
2.070003,-0.014229,-0.195462,-0.113911,-0.307368,-0.028506,0.061767,0.183061,0.415554,0.288707,-0.141578,0.060999,0.163463,0.002984,-0.009558,-0.009802,
2.070837,-0.009113,-0.287617,-0.088925,-0.124598,-0.040012,0.076487,0.181097,0.402445,-0.081392,-0.148174,0.107986,0.195751,0.021759,0.008601,-0.010205,
2.071670,-0.012197,-0.260536,-0.044698,0.116663,-0.031005,0.092403,0.381180,0.216941,-0.245524,-0.072533,0.078928,0.189816,0.004419,0.004183,-0.011331,
2.072503,-0.009905,-0.224517,0.015847,0.395779,-0.013600,0.120813,0.439059,0.120048,-0.054804,-0.004187,0.035781,0.189914,0.022885,0.004501,-0.008303,
2.073337,-0.011548,-0.189885,0.011209,0.665121,-0.004799,0.064681,0.286341,0.053074,0.191899,0.041190,0.014090,0.164266,0.007469,-0.002805,-0.014094,
2.074170,-0.009657,-0.109097,0.002860,0.829001,-0.012300,0.036473,0.022907,-0.010959,0.576651,0.036173,-0.007379,0.111575,0.016657,-0.010107,-0.005517,
2.075003,-0.004082,-0.068081,-0.013642,0.933776,-0.011304,-0.074423,-0.206985,-0.072497,0.780575,0.087462,0.023373,0.050507,0.007916,0.005482,-0.008513,
2.075837,-0.005510,-0.077344,0.048814,0.820552,-0.018980,-0.225724,-0.224470,0.049278,0.307214,0.078366,0.024512,-0.008070,-0.013061,-0.009903,-0.000964,
2.076670,0.002077,-0.069221,0.051667,0.557905,-0.009319,-0.253073,-0.145363,-0.103252,0.563523,0.079565,-0.083360,-0.078768,-0.016470,0.010265,-0.002098,
2.077503,0.001892,-0.026196,0.018098,0.269154,-0.020103,-0.061381,-0.333158,-0.384521,0.481040,0.148463,-0.049755,-0.139114,-0.041468,-0.017936,0.006847,
2.078337,0.012542,0.008713,0.053843,-0.012913,-0.048232,0.090285,-0.613051,-0.278479,0.650565,0.132187,-0.025190,-0.213607,-0.034121,0.006657,0.009541,
2.079170,0.009001,0.028700,0.033012,-0.295991,-0.079932,0.157101,-0.491514,-0.033834,1.672227,0.036551,-0.065581,-0.312373,-0.046683,-0.003388,0.011014,
2.080003,0.014302,0.026236,-0.011284,-0.423788,-0.093359,0.127662,-0.260577,0.128804,1.597809,-0.017434,-0.080207,-0.344937,-0.026106,-0.005652,0.014008,
2.080837,0.008910,0.029849,-0.040896,-0.364411,-0.027008,0.026729,0.049541,0.138375,0.476058,-0.023508,-0.135205,-0.344527,-0.054366,0.004900,0.007377,
2.081670,0.008991,-0.011094,-0.057803,-0.071663,0.078681,-0.043721,0.262861,-0.027019,0.219511,-0.032641,0.005410,-0.303263,-0.034280,0.003853,0.010190,
2.082503,0.006453,-0.037024,-0.058790,0.162945,0.120841,-0.092489,0.237851,-0.185851,0.227502,-0.073071,0.163967,-0.217485,-0.034666,0.005095,0.003823,
2.083337,0.006477,0.007537,-0.036979,0.153469,0.121251,-0.116475,0.371883,-0.162212,-0.836753,-0.101016,0.146009,-0.123745,-0.028032,0.000843,0.009938,
2.084170,0.010276,0.112168,-0.029432,0.217636,0.096635,-0.230220,0.598726,-0.118907,-2.346400,-0.130382,0.037243,-0.024816,-0.039210,0.014443,0.005792,
2.085003,0.004874,0.150804,-0.022854,0.100956,0.060648,-0.317406,0.480411,-0.125026,-2.086419,-0.180872,-0.021996,0.029437,-0.057612,-0.016053,0.008164,
2.085837,0.006590,0.113970,-0.014172,-0.140853,0.019599,-0.124081,0.207137,-0.172574,-0.916272,-0.104194,-0.118262,0.055891,-0.043334,0.005483,0.000720,
2.086670,-0.002738,0.041939,0.002282,-0.318100,0.021892,0.154785,0.089465,-0.165182,-0.712654,-0.004285,-0.185969,0.057128,-0.043130,-0.014635,-0.000220,
2.087503,-0.001297,0.018170,-0.004595,-0.348662,0.043437,0.259669,0.028537,-0.037435,-0.495746,0.077474,-0.055461,0.073616,-0.022561,0.009501,-0.004882,
2.088337,-0.009687,0.042802,-0.034323,-0.367841,0.056924,0.205086,-0.000974,0.119541,-0.121071,0.121828,0.017512,0.064225,-0.021340,-0.007865,-0.007778,
2.089170,-0.007315,-0.058898,0.050755,-0.407318,0.082790,0.136611,-0.033868,0.194494,0.468652,0.115927,-0.006726,0.069187,0.009333,0.003307,-0.007232,
2.090003,-0.010048,-0.079748,0.086169,-0.339144,0.054336,0.133276,-0.113949,0.069157,0.490335,0.081710,-0.035245,0.096253,0.033572,-0.003216,-0.010416,
2.090837,-0.009493,0.000802,0.002358,-0.194503,0.024485,0.097097,-0.214979,-0.083139,0.223593,0.045084,0.002305,0.107564,0.049825,-0.000731,-0.006189,
2.091670,-0.009006,-0.022549,0.037828,-0.007153,-0.008163,0.037190,-0.401647,-0.089524,0.214382,0.129305,0.032699,0.105703,0.064321,0.001607,-0.012403,
2.092503,-0.011480,-0.123195,0.047936,0.156664,-0.039973,0.024303,-0.404453,0.135889,0.112426,0.196249,0.069842,0.062890,0.049560,-0.005510,-0.006470,
2.093337,-0.010958,-0.142414,-0.027587,0.222940,-0.073101,0.010761,-0.249435,0.286665,-0.078795,0.205909,0.084918,0.024270,0.053106,0.012404,-0.014628,
2.094170,-0.017654,-0.085855,0.007641,0.273320,-0.078569,0.003962,-0.119763,-0.075174,-0.208659,0.204496,0.105419,0.014379,0.027147,-0.005688,-0.012454,
2.095003,-0.010198,-0.033663,0.012927,0.279440,-0.093758,-0.008543,-0.024923,-0.316924,0.010518,0.080756,0.103603,0.061396,0.034175,0.013305,-0.013368,
2.095837,-0.013754,-0.034439,0.040752,0.217216,-0.104922,-0.009300,-0.048522,0.205697,0.025688,-0.142733,0.043184,0.079338,0.002851,-0.009353,-0.008509,
2.096670,-0.005422,-0.010021,-0.016473,0.240027,-0.072352,-0.027556,-0.025407,0.584209,0.030578,-0.317954,-0.023319,0.070090,-0.000855,0.003087,-0.008087,
2.097503,-0.008993,0.044925,0.021441,0.199130,-0.036279,-0.057611,0.105399,0.502754,0.085103,-0.571994,-0.051928,0.054273,-0.006966,-0.002018,-0.007209,
2.098337,0.000875,0.072975,0.011648,0.024365,-0.020890,-0.065234,0.382026,0.172336,0.119622,-0.546845,-0.094339,0.083455,-0.005699,0.007832,0.001156,
2.099170,0.007408,0.139798,-0.030310,-0.086640,-0.041956,-0.089125,0.257315,-0.238942,0.183192,-0.193935,-0.145944,0.056733,0.011184,-0.003680,0.006950,
2.100003,0.021453,0.201003,0.008151,-0.118444,-0.036494,-0.045447,-0.044828,-0.356399,0.595993,0.213973,-0.066940,0.033240,0.025965,-0.005430,0.023153,
2.100837,0.034016,0.280973,0.004781,-0.032568,-0.014735,-0.004313,-0.150008,-0.108409,0.751972,0.263445,-0.037655,0.030419,0.062713,0.008686,0.030243,
2.101670,0.032288,0.256804,-0.039682,0.032617,-0.004900,0.029787,0.020334,0.053566,0.693386,0.182683,0.014419,0.016399,0.063394,-0.002229,0.033110,
2.102503,0.026195,0.168978,-0.039814,-0.042644,0.002656,0.071300,0.007222,-0.284109,0.549437,0.223707,0.099076,-0.007912,0.057234,0.008362,0.020470,
2.103337,0.014062,0.095177,-0.010745,-0.288536,0.003555,0.019485,-0.192210,-0.549047,0.211865,0.151474,0.053074,-0.041635,0.035455,-0.014015,0.017199,
2.104170,0.011913,0.022118,-0.010175,-0.581894,0.012816,0.032409,-0.080161,-0.180467,-0.123202,-0.031019,0.022005,-0.073990,0.010780,0.013034,0.007123,
2.105003,0.001286,0.020575,-0.016605,-0.292195,0.007171,0.079101,0.039951,0.389526,-0.603747,-0.420572,0.026639,-0.120619,-0.008195,-0.003418,0.004740,
2.105837,0.000947,0.086550,0.124827,0.000450,0.029284,0.071542,0.047216,0.776744,-0.690213,-0.358685,0.029916,-0.131566,-0.027071,-0.007830,-0.000938,
2.106670,-0.008637,0.041177,0.074909,0.157674,0.016998,-0.094441,0.012693,0.560996,-0.495517,-0.148934,0.005449,-0.096711,-0.047485,-0.004629,-0.008846,
2.107503,-0.009771,-0.104885,-0.136764,0.338961,0.037102,-0.218588,0.026519,0.238854,-0.395494,-0.037999,-0.020204,-0.038145,-0.062378,0.004353,-0.009680,
2.108337,-0.016191,-0.212169,-0.091490,0.587369,0.062090,-0.083989,-0.076753,-0.126141,-0.539845,-0.199029,-0.039256,-0.005125,-0.057212,-0.008807,-0.017482,
2.109170,-0.018445,-0.230909,-0.048056,0.786655,0.090853,-0.061482,-0.233387,-0.425107,-0.399253,-0.143729,-0.025770,0.051810,-0.054826,-0.002300,-0.015627,
2.110003,-0.016232,-0.141203,-0.000195,0.672414,0.073306,-0.183303,-0.127278,-0.345432,0.205718,0.305803,0.009570,0.115741,-0.040367,0.010294,-0.018156,
2.110837,-0.015052,-0.062423,-0.000386,0.370869,0.042522,-0.303750,-0.029952,-0.142561,0.292091,0.700764,0.024638,0.083692,-0.018958,-0.007189,-0.009971,
2.111670,-0.011400,-0.151884,-0.015653,-0.073538,0.022109,-0.173969,0.016692,-0.053751,0.392096,0.962502,-0.005755,0.013968,0.005048,0.008426,-0.014728,
2.112503,-0.013064,-0.236805,0.001173,-0.523585,-0.017885,0.047495,0.087607,-0.125495,-0.293673,0.674044,-0.012352,-0.017419,0.002134,-0.010152,-0.008170,
2.113337,-0.002656,-0.214381,-0.004968,-0.735380,-0.064389,0.127629,0.162658,-0.384719,-1.014331,0.338041,-0.007381,-0.035162,0.024126,0.007117,-0.005104,
2.114170,-0.002914,-0.135412,0.024693,-0.862052,-0.074581,0.146378,0.180934,-0.529652,-0.010220,0.001186,0.000285,-0.061202,0.011321,-0.008125,-0.000040,
2.115003,0.005993,-0.027598,0.051426,-0.918779,-0.076298,0.167960,0.183872,-0.362258,1.287224,-0.586624,0.020994,-0.046213,0.021372,0.008974,0.004118,
2.115837,0.004223,0.120475,0.131713,-0.550089,-0.046570,0.143664,0.166335,-0.370668,0.992167,-0.729612,0.037171,-0.046911,-0.000513,-0.000786,0.004773,
2.116670,0.010543,0.135793,0.029679,-0.180534,-0.027285,0.143018,0.163579,-0.488193,-0.170915,-0.204414,0.045581,-0.020513,-0.000315,0.005474,0.011227,
2.117503,0.009689,-0.041391,-0.037977,-0.016615,-0.047373,0.115900,0.110726,-0.218760,-0.121806,0.013455,0.025593,0.001158,-0.019521,-0.000320,0.006083,
2.118337,0.007760,-0.147149,-0.082065,0.083215,-0.046356,0.091816,0.039902,0.309313,0.212346,0.015390,0.013341,0.002308,-0.023465,-0.004584,0.010090,
2.119170,0.008263,-0.030740,0.000740,0.211206,-0.026632,0.066524,0.023639,0.801521,0.766363,0.057750,-0.004635,0.007593,-0.033464,-0.000450,0.004170,
2.120003,0.004023,0.062790,0.056646,0.245045,-0.005110,0.051781,0.004888,0.916188,1.010737,-0.004539,-0.029889,0.005209,-0.032072,-0.007445,0.008461,
2.120837,0.007242,-0.014392,-0.013053,0.246563,0.016857,0.036579,-0.007051,0.542779,-0.158689,0.060676,-0.043527,0.004724,-0.038754,0.009681,0.002817,
2.121670,0.000064,-0.101883,-0.053620,0.290675,0.080778,0.031251,-0.030365,0.320538,-1.363455,0.115100,-0.050301,-0.015562,-0.042603,-0.010411,0.004783,
2.122503,0.005219,-0.097878,-0.029946,0.151043,0.147432,-0.004247,-0.042517,0.329437,-1.443609,-0.081001,-0.043672,-0.002118,-0.026451,0.010560,0.001843,
2.123337,-0.001708,-0.059424,-0.005195,-0.073710,0.208714,-0.014615,-0.072096,0.121456,-0.825337,-0.422165,-0.018160,0.003230,-0.025462,-0.007208,0.001011,
2.124170,0.003079,-0.049692,-0.017662,0.144369,0.204017,-0.014604,-0.081932,0.165283,-0.154551,-0.633984,0.028665,0.000168,-0.001554,0.006631,0.001215,
2.125003,-0.004531,0.034284,0.008186,0.431385,0.135745,-0.028443,-0.087498,0.310983,-0.418341,-0.473901,0.031949,0.005632,-0.001182,-0.001786,-0.005482,
2.125837,-0.003024,0.093560,0.009175,0.698883,0.033453,-0.032304,-0.082134,0.228081,-1.200598,-0.341268,0.012136,0.028016,0.015870,0.004011,-0.001689,
2.126670,-0.003088,0.149084,0.019481,1.068482,-0.033788,-0.040517,-0.070918,-0.053657,0.051913,-0.327641,-0.000707,0.023845,0.017179,0.006627,-0.005720,
2.127503,-0.003045,0.163003,0.023835,1.007310,-0.078695,-0.043454,-0.074781,-0.141013,0.970103,-0.173301,0.006398,0.018615,0.038523,-0.004312,0.000277,
2.128337,-0.002134,0.204528,0.029854,0.668661,-0.129093,-0.054379,-0.074205,-0.355950,0.499849,0.079056,-0.015819,0.026079,0.070049,0.005526,-0.006437,
2.129170,-0.004476,0.190069,0.035082,0.341011,-0.130712,-0.044893,-0.074517,-0.506664,0.697360,0.356824,-0.019426,0.023525,0.076561,-0.012077,-0.000380,
2.130003,0.000611,0.182767,0.025460,0.130041,-0.122809,-0.034047,-0.054622,-0.345942,1.106146,0.551537,-0.007147,0.006403,0.085262,0.004675,-0.002609,
2.130837,-0.004879,0.197786,0.021415,-0.397022,-0.064684,-0.023791,-0.034299,-0.284514,1.358494,0.747432,0.005177,0.005264,0.070550,-0.014559,-0.000001,
2.131670,0.001182,0.145407,-0.000424,-0.985353,-0.011448,-0.017895,0.004089,-0.440112,0.957708,0.923286,0.002013,0.017852,0.054108,0.006511,-0.002015,
2.132503,-0.003940,0.114234,-0.003000,-1.199393,-0.023696,-0.013551,0.024336,-0.612291,0.288583,0.586506,-0.038733,0.004381,0.025566,-0.009019,-0.001477,
2.133337,0.001276,0.104777,-0.009534,-1.149328,-0.053527,-0.017856,0.022155,-0.570975,0.048839,0.088133,-0.049276,0.016319,0.008264,0.007208,0.000396,
2.134170,-0.002243,0.128188,-0.005402,-1.107761,-0.118180,-0.016984,0.018767,-0.135799,0.472165,0.009735,-0.045756,0.029143,-0.003155,-0.002032,-0.002648,
2.135003,-0.000450,0.199252,-0.017636,-0.888222,-0.110224,-0.007009,0.016793,0.340794,0.107680,-0.129618,-0.027221,0.003691,-0.025503,0.003390,0.000840,
2.135837,-0.001430,0.229581,-0.024743,-0.533485,-0.144239,-0.018623,0.008504,0.514775,-1.264868,-0.269039,0.031997,-0.002150,-0.020667,0.007602,-0.003326,
2.136670,-0.001359,0.135513,-0.020945,-0.215780,-0.204030,-0.019025,0.007551,0.482657,-2.408326,-0.331644,0.103244,0.009392,-0.035989,-0.002217,0.001951,
2.137503,0.000532,-0.055076,-0.022129,-0.004875,-0.165217,-0.023614,0.017529,0.089196,-1.766931,-0.412074,0.068902,0.000083,-0.038099,0.005820,-0.003771,
2.138337,-0.003227,-0.188250,-0.019307,0.090571,-0.040141,-0.018777,0.011831,-0.425491,-0.519831,-0.332157,0.039931,-0.029242,-0.030706,-0.008115,0.000879,
2.139170,0.002172,-0.253943,-0.023473,0.179292,0.053106,-0.017592,0.009337,-0.421199,0.227699,-0.251710,0.026878,-0.055467,-0.046360,0.013040,-0.002250,
2.140003,-0.003710,-0.251357,-0.014190,0.234716,0.093926,-0.022591,-0.002961,0.253229,0.803096,0.035345,-0.022425,-0.081713,-0.028958,-0.007165,0.000885,
2.140837,0.002175,-0.316975,-0.014957,0.293916,0.123967,-0.002268,-0.010749,0.988750,0.582613,0.275340,-0.057460,-0.086230,-0.030580,0.011528,-0.000999,
2.141670,-0.003818,-0.388863,0.000013,0.373370,0.200420,0.011570,0.004557,0.749822,0.093060,0.029519,-0.046788,-0.079306,-0.010986,-0.004433,-0.002862,
2.142503,0.000900,-0.362608,0.004785,0.425146,0.316680,0.008487,-0.000863,0.109932,0.474847,-0.193916,0.016458,-0.055508,-0.011566,0.008730,0.001102,
2.143337,0.000619,-0.370549,0.007606,0.375031,0.311089,0.007046,-0.022314,-0.147797,0.694663,-0.438514,0.031870,-0.037176,0.013877,-0.011091,-0.000088,
2.144170,0.005260,-0.425333,0.006653,0.400840,0.317996,0.018639,-0.012835,-0.148459,0.523672,-0.179587,0.046741,0.003551,0.012061,0.001562,0.006235,
2.145003,0.006130,-0.292200,0.011095,0.437713,0.277334,0.019720,0.016233,-0.065382,0.346021,0.305866,0.044882,0.035176,0.002340,0.010676,0.002529,
2.145837,0.004301,-0.085303,0.010875,0.527533,0.186697,0.032976,0.042558,-0.077245,0.092698,0.591614,0.016357,0.079146,-0.013930,0.001295,0.008328,
2.146670,0.005571,0.063251,0.000513,0.477276,0.070681,0.030124,0.050049,-0.120584,-0.330155,0.239380,-0.025887,0.109138,0.005354,-0.014682,0.001659,
2.147503,0.000328,0.103793,0.022902,0.313872,0.000874,0.029266,0.050832,-0.049388,-0.632918,0.032050,-0.021144,0.089061,-0.029691,-0.008414,0.004955,
2.148337,0.004136,0.116389,0.003443,0.153285,-0.083427,0.026524,0.059919,-0.024816,-0.545944,0.136366,-0.019950,0.065055,-0.013321,-0.020950,0.000209,
2.149170,-0.001928,0.140686,-0.005817,-0.061165,-0.120846,0.017097,0.045310,-0.163774,-0.595627,0.017168,-0.034387,0.023895,0.000757,-0.008189,0.001457,
2.150003,0.002731,0.257237,0.024433,-0.111870,-0.142306,0.019365,0.014204,-0.400064,-0.430056,-0.072580,-0.035495,-0.000659,0.022623,0.014001,0.000000,
2.150837,-0.001268,0.370511,0.026916,-0.001310,-0.141324,-0.006128,0.006287,-0.437844,-0.092225,-0.195618,-0.025746,-0.034216,-0.003252,-0.000918,-0.000350,
2.151670,0.004993,0.339643,0.003932,0.061084,-0.172879,0.013909,0.021866,-0.076481,-0.606886,-0.880068,0.002308,-0.028392,0.002341,0.006567,0.004062,
2.152503,0.001822,0.254159,0.000659,-0.011928,-0.212267,0.010089,0.022626,0.432239,-1.129919,-0.988253,0.001027,-0.026215,0.000816,0.000602,0.001180,
2.153337,0.002337,0.165869,-0.013716,-0.145402,-0.269991,0.008684,-0.003968,0.414166,-0.110305,-0.239266,0.017381,-0.014879,-0.002161,-0.000042,0.004425,
2.154170,0.001192,0.138297,-0.068483,-0.356870,-0.220563,0.011848,0.000487,0.062619,1.082865,0.265195,0.023572,0.007727,0.013726,0.007233,-0.001619,
2.155003,-0.001008,0.100652,-0.002195,-0.720312,-0.119417,0.004479,-0.012422,-0.203709,1.323658,0.479495,0.024304,0.018069,-0.012384,-0.005644,0.002725,
2.155837,-0.000304,-0.044754,-0.013978,-0.632199,-0.080546,-0.002137,-0.011465,-0.491639,0.995948,0.714903,0.011925,0.013966,0.012455,0.012296,-0.004520,
2.156670,-0.007075,-0.193626,0.025415,-0.118401,-0.103154,-0.012744,-0.040035,-0.374541,0.634423,0.760068,-0.004277,0.006498,-0.026941,-0.016764,-0.003676,
2.157503,-0.003780,-0.221269,0.066852,0.297206,-0.140943,-0.015619,-0.044632,0.073879,0.545289,1.220140,-0.007536,0.006432,-0.000855,0.014757,-0.007260,
2.158337,-0.008734,-0.166448,-0.018299,0.336452,-0.117836,-0.020867,-0.027759,0.503575,0.206422,1.244557,0.003508,-0.015299,-0.009522,-0.006970,-0.005205,
2.159170,-0.002562,-0.053784,0.017916,0.276944,-0.075833,-0.018151,-0.024115,0.741960,-0.215900,0.169420,0.008091,-0.018037,0.023058,0.010071,-0.003924,
2.160003,-0.006782,0.053458,0.057087,0.189888,-0.008861,-0.017744,-0.027504,0.463551,-0.072524,-0.726155,-0.023854,-0.008891,0.040895,-0.004004,-0.004792,
2.160837,-0.002171,0.143248,-0.036746,-0.021307,0.004627,-0.014358,-0.048512,0.080167,0.177854,-0.264334,-0.035414,0.006245,0.049637,0.003148,-0.002319,
2.161670,-0.004141,0.148128,-0.028909,-0.232380,-0.049437,-0.009729,-0.040042,-0.159492,0.587970,-0.244869,-0.034526,0.004079,0.030824,-0.000364,-0.005661,
2.162503,-0.001555,0.095376,-0.008516,-0.467950,0.028941,0.005540,-0.029001,-0.347913,0.110971,-1.262044,-0.005164,-0.001909,0.010392,-0.003702,0.000897,
2.163337,0.001317,0.155064,-0.008380,-0.558802,0.163397,0.002700,-0.000633,-0.434000,-0.832118,-1.677603,0.021401,-0.006331,0.016106,0.009002,-0.003090,
2.164170,-0.001325,0.199856,-0.009281,-0.569143,0.209934,0.044855,0.009318,-0.322094,-0.583399,-1.310800,0.032514,-0.007611,0.008743,-0.008025,0.003281,
2.165003,0.003492,0.158404,-0.015801,-0.736031,0.221963,0.028026,0.024925,-0.091252,-0.161515,-0.914512,0.016136,0.001320,0.028573,0.009454,-0.000890,
2.165837,-0.001625,0.111033,-0.007499,-0.675778,0.193183,0.020354,0.016709,-0.037661,-0.234745,-0.725282,-0.000099,0.014566,0.004173,-0.008901,0.002859,
2.166670,0.004231,0.028969,-0.007725,-0.362050,0.174307,0.011551,0.024930,-0.225720,-0.381097,0.057214,0.009923,0.024706,0.000837,0.003435,0.001256,
2.167503,-0.000301,-0.063291,0.000300,0.005193,0.118177,0.003691,0.048804,-0.006479,-0.448766,0.972004,0.011284,0.010745,-0.016086,-0.007400,0.003001,
2.168337,0.005992,-0.153589,-0.003263,0.425550,0.086065,-0.005117,0.061919,0.385835,-0.409348,1.726563,0.000345,0.027073,-0.027687,0.007113,0.003671,
2.169170,0.000072,-0.140324,0.001877,0.765072,0.037254,-0.022097,0.058314,0.386949,-0.033267,2.524089,-0.010505,0.015480,-0.029859,-0.002616,0.000064,
2.170003,0.001931,-0.199110,0.006103,0.845048,0.017328,-0.016171,0.022420,-0.003751,0.212237,1.933558,-0.006438,0.011755,-0.051144,-0.003632,0.002863,
2.170837,-0.000332,-0.341333,0.011700,0.864976,0.039619,-0.044601,-0.031118,-0.157453,0.123657,0.615109,-0.011378,-0.004910,-0.031428,-0.001581,-0.001815,
2.171670,0.001679,-0.367310,-0.005746,1.017108,0.110081,-0.025179,-0.065981,-0.058292,-0.038283,-1.087612,-0.007900,-0.014114,-0.030986,-0.002571,0.004799,
2.172503,0.004301,-0.290472,-0.000463,0.731756,0.158479,0.001938,-0.091012,0.076596,-0.163410,-2.260946,-0.010467,-0.019858,-0.034253,0.004994,0.000886,
2.173337,0.002044,-0.211329,-0.002056,0.310738,0.204111,-0.002484,-0.091859,0.223250,-0.149125,-1.837144,-0.009741,-0.023690,-0.031308,-0.007729,0.006436,
2.174170,0.005895,-0.035186,0.005037,0.321309,0.196510,-0.016638,-0.034938,0.291026,-0.078334,-0.391695,0.000261,-0.033705,-0.024281,0.015564,0.000697,
2.175003,0.000135,0.124569,0.015168,0.174348,0.142257,0.000214,0.014304,0.213547,0.109229,1.058414,0.000493,-0.048831,-0.012093,-0.006919,0.003505,
2.175837,0.003840,0.289781,-0.000354,0.022571,0.111861,-0.002582,0.037728,-0.031161,0.258104,1.147987,-0.009778,-0.040820,0.006640,0.013628,-0.000704,
2.176670,-0.004966,0.224917,0.013553,-0.121876,0.012411,-0.001669,0.019941,-0.309275,0.129084,0.613393,-0.034801,-0.045197,0.006754,-0.008707,-0.002930,
2.177503,-0.004921,-0.046434,0.014160,-0.156230,-0.137600,-0.006030,0.018030,-0.381225,-0.039260,0.486703,-0.036102,-0.043608,0.025186,0.002522,-0.006378,
2.178337,-0.009302,-0.179311,0.014436,-0.145880,-0.288522,-0.016706,0.015534,-0.122181,0.051010,0.030260,-0.032586,-0.042411,0.021668,-0.005636,-0.009371,
2.179170,-0.002548,-0.170836,-0.003173,-0.265454,-0.347944,-0.015201,0.032766,0.060471,0.180413,-0.365972,-0.002877,-0.028725,0.025049,0.003134,-0.000468,
2.180003,0.000082,-0.086334,-0.000522,-0.308994,-0.330978,0.004928,0.051585,0.040569,0.365676,0.105306,0.015799,-0.013470,0.031676,0.006855,-0.000727,
2.180837,0.003468,0.044884,-0.013776,-0.506131,-0.250547,0.025263,0.049117,-0.044675,0.504046,-0.298346,0.028327,0.014876,0.034692,-0.001796,0.006632,
2.181670,0.007148,0.072798,-0.013795,-0.802170,-0.206941,0.013499,0.042618,-0.214444,0.136623,-0.770977,0.027679,0.043267,0.054241,-0.020837,0.003450,
2.182503,0.004864,0.042994,-0.009430,-0.759502,-0.133445,0.004475,0.016992,-0.380342,-0.112589,-0.324117,0.029255,0.039590,0.046837,-0.008156,0.008035,
2.183337,0.005311,-0.019417,-0.006939,-0.682321,-0.056356,0.011514,0.004902,-0.298179,0.299380,-0.253358,0.038069,0.052294,0.037199,0.011682,0.000853,
2.184170,-0.002500,-0.008328,0.004055,-0.623893,0.006192,0.005826,-0.002341,0.168054,0.076188,-0.405589,0.043869,0.048501,0.013574,-0.013662,0.001585,
2.185003,0.002946,0.084216,0.003564,-0.285234,0.030646,-0.003383,-0.007021,0.556370,-0.634426,-0.311045,0.053030,0.048732,-0.005584,0.015758,-0.000299,
2.185837,-0.005518,0.183730,-0.012073,0.029384,0.002829,0.006060,-0.026069,0.477261,-0.573899,0.110820,0.036978,0.022543,-0.026536,-0.002138,-0.003122,
2.186670,-0.001644,0.252000,-0.009437,0.100898,-0.029261,-0.008219,-0.039949,0.146221,-0.317484,0.327948,0.018554,0.026455,-0.047769,0.011233,-0.002613,
2.187503,-0.001458,0.331325,0.002626,0.285400,-0.065483,-0.014898,-0.055218,-0.088361,-0.366752,0.007287,-0.001985,0.035505,-0.044879,0.000788,-0.001063,
2.188337,0.003586,0.287110,0.003217,0.465092,-0.037586,-0.002644,-0.061341,-0.190909,-0.243981,-0.057022,-0.000277,0.035554,-0.025505,0.002844,0.004582,
2.189170,0.000212,0.202297,0.006225,0.457811,0.001118,-0.010181,-0.034966,-0.093204,0.263947,0.278402,0.015537,0.019933,-0.015904,0.003822,-0.003074,
2.190003,-0.001200,0.137197,-0.006806,0.299462,0.025428,0.014706,-0.033612,0.112439,0.840952,0.464219,0.061123,0.002567,-0.014254,-0.005582,0.001452,
2.190837,0.000265,0.081430,-0.010693,0.074935,0.030925,0.009327,0.007885,0.117780,1.054047,0.416342,0.097828,0.003783,0.001714,0.007743,-0.003047,
2.191670,-0.004698,0.009162,-0.007871,-0.002865,0.010006,0.007577,0.025140,-0.157464,-0.018805,0.480544,0.056942,0.000565,-0.004628,-0.025781,0.000675,
2.192503,-0.001895,-0.157350,-0.005656,0.061512,-0.021886,0.000922,0.058903,-0.397318,-0.610481,0.442314,-0.015184,-0.006455,0.004251,0.009664,-0.006605,
2.193337,-0.009633,-0.291567,0.010148,0.189788,0.029125,0.022480,0.098656,-0.303368,-0.332956,-0.124488,-0.062885,-0.015735,-0.007815,-0.010279,-0.006421,
2.194170,-0.003340,-0.343868,0.012998,0.328526,0.084783,0.043717,0.054077,-0.056331,-0.384079,-0.367301,-0.111204,-0.026500,0.008763,0.008384,-0.005633,
2.195003,-0.007271,-0.335300,0.021515,0.516259,0.073830,0.000997,0.001928,0.252783,-0.342761,-0.286981,-0.184409,-0.042860,-0.006288,-0.006059,-0.005000,
2.195837,-0.000822,-0.226184,0.011901,0.711827,0.079855,-0.007425,-0.021313,0.689816,-0.069926,-0.321684,-0.222988,-0.044055,0.007306,0.009107,-0.001615,
2.196670,-0.004281,-0.066412,0.006440,0.513003,0.084479,0.005462,-0.037151,0.698656,0.195980,-0.223072,-0.195492,-0.052970,0.007129,-0.000438,-0.004628,
2.197503,-0.001620,0.101300,-0.002646,0.071108,0.078588,0.001641,-0.069683,0.180644,0.184293,-0.389312,-0.162775,-0.056324,-0.001474,-0.002342,0.001226,
2.198337,-0.001835,0.152308,-0.001927,-0.356229,0.040958,-0.006708,-0.131412,-0.339411,0.149529,-0.664683,-0.015702,-0.042061,0.005611,0.001106,-0.004494,
2.199170,-0.000039,0.160343,-0.005743,-0.659573,0.014244,-0.006341,-0.075083,-0.389796,0.144465,-0.587219,0.108291,-0.034897,-0.017692,-0.006265,0.003549,
2.200003,0.006371,0.163757,-0.004174,-0.741123,-0.012064,0.001639,0.017681,-0.224353,0.128623,-0.818477,0.132047,-0.012861,0.013005,0.010792,0.001403,
2.200837,0.005343,0.144463,-0.001337,-0.666834,0.003491,0.016891,0.070897,-0.190453,0.101636,-0.345227,0.140306,0.005279,0.002038,-0.007383,0.008909,
2.201670,0.011987,0.083640,-0.007152,-0.476132,0.017310,-0.008839,0.104714,-0.271229,0.095472,0.536679,0.125190,0.022572,0.024486,0.012758,0.008220,
2.202503,0.006319,0.020020,-0.000407,-0.221134,0.050728,-0.004638,0.106929,-0.065127,0.105767,1.263105,0.079736,0.059918,0.003911,-0.008284,0.009865,
2.203337,0.010769,-0.045779,-0.006129,0.031074,0.083048,-0.003500,0.067171,0.409652,0.081154,1.403071,0.057400,0.103880,0.006083,0.010363,0.007898,
2.204170,0.002757,-0.121497,0.004675,0.345071,0.072300,-0.000121,0.033351,0.292487,0.048081,0.709730,0.046481,0.099821,-0.006678,-0.006681,0.003539,
2.205003,0.001661,-0.211938,-0.001568,0.585989,0.076398,-0.003996,-0.004297,-0.274570,-0.005301,-0.107870,0.023217,0.054900,-0.004156,0.003298,0.000144,
2.205837,-0.005950,-0.225278,-0.000291,0.490005,0.067444,-0.014390,-0.052948,-0.276646,-0.057722,-0.133060,-0.003813,-0.007401,-0.004808,-0.002580,-0.006407,
2.206670,-0.004512,-0.211107,-0.002179,0.310259,0.085542,-0.001425,-0.071711,-0.049863,-0.041206,0.137655,0.017907,-0.033697,-0.016871,-0.002800,-0.002537,
2.207503,-0.003491,-0.082099,-0.000672,0.145760,0.048375,-0.002506,-0.088519,0.119114,0.140170,0.078625,0.040332,-0.033622,-0.005245,0.006450,-0.005034,
2.208337,-0.001060,0.114982,-0.001268,-0.002749,0.051506,-0.012921,-0.079726,0.149632,0.329668,0.036597,0.051723,-0.042143,-0.003804,-0.008554,0.003187,
2.209170,0.005064,0.112765,-0.001069,-0.059456,0.061995,-0.003080,-0.054194,0.102046,0.227915,-0.031131,0.004324,-0.040061,0.007594,0.010018,0.000758,
2.210003,0.000990,0.082604,0.004804,0.032226,0.069312,0.034794,-0.026731,-0.063221,-0.031226,-0.186366,-0.043731,-0.028471,-0.013166,-0.008028,0.005220,
2.210837,0.006241,0.104943,-0.003337,-0.034264,0.062157,0.044853,0.018518,-0.207357,-0.310338,-0.327976,-0.073379,-0.014726,-0.001235,0.013143,0.001156,
2.211670,-0.001163,0.066921,0.004869,-0.153491,0.051357,0.039004,0.041411,-0.338178,-0.367128,-0.281753,-0.083870,-0.020676,-0.011703,-0.014514,0.002596,
2.212503,0.003339,-0.027568,0.000120,-0.161556,0.035551,-0.081160,0.060699,-0.305106,-0.235437,-0.019523,-0.072628,-0.010492,0.025159,0.007876,0.000529,
2.213337,-0.004066,-0.076499,0.008659,0.018788,0.013249,-0.049203,0.089946,-0.004558,-0.528888,0.003039,-0.056767,-0.000075,0.007414,-0.004223,-0.001847,
2.214170,-0.000496,-0.104327,-0.002175,0.023378,0.007565,0.003976,0.108840,0.163662,-0.712065,-0.019555,-0.015253,0.012222,0.015163,0.003203,-0.000420,
2.215003,-0.003508,-0.069884,0.005457,-0.016158,-0.025021,-0.027185,0.027790,0.139710,-0.353724,-0.124854,-0.001368,0.019808,0.020626,-0.015775,-0.004963,
2.215837,-0.003494,-0.031792,-0.018806,-0.020350,-0.042673,-0.060255,-0.004301,0.146786,-0.314232,-0.137522,0.013393,0.016852,0.010975,-0.001955,-0.000529,
2.216670,-0.000462,-0.034019,-0.004166,-0.029778,-0.084820,-0.121753,-0.023771,0.211236,-0.139381,0.059682,0.000005,0.030330,0.009085,0.006668,-0.004520,
2.217503,-0.004180,-0.031891,0.006493,-0.190735,-0.121694,-0.091705,-0.028508,0.334219,0.472177,0.403679,0.010012,0.033508,-0.000161,-0.004861,-0.000460,
2.218337,-0.000769,0.009950,-0.012163,-0.352697,-0.146337,0.001999,-0.011516,0.248010,0.271356,0.019213,0.051160,0.008806,0.020761,0.011523,-0.005446,
2.219170,-0.005492,0.006760,0.015239,-0.378693,-0.175056,0.057622,0.015282,0.121272,0.074053,-0.399709,0.056886,-0.004899,0.000734,-0.008420,-0.000406,
2.220003,0.000419,-0.025058,0.001414,-0.280651,-0.212626,0.058259,-0.047928,-0.036505,0.229239,-0.279721,0.040124,-0.015419,0.014665,0.012063,-0.003349,
2.220837,-0.004708,-0.007025,0.005867,-0.149675,-0.277934,0.030641,-0.076651,-0.269106,0.522367,-0.080272,0.030137,-0.031331,-0.015578,-0.005308,-0.001612,
2.221670,0.000948,0.066985,0.006620,-0.040540,-0.267713,0.044831,-0.035195,-0.411134,0.574988,-0.002572,0.012698,-0.025199,-0.009438,0.014847,-0.000841,
2.222503,-0.003975,0.147218,0.006415,0.018076,-0.240519,0.021803,0.051404,-0.263036,0.463796,0.015891,0.005475,-0.023755,-0.038181,0.003101,-0.002561,
2.223337,0.001429,0.163285,-0.008789,-0.176460,-0.232567,0.039387,0.126683,-0.034820,0.290473,0.024102,-0.043443,-0.010090,-0.015291,-0.028643,0.001468,
2.224170,0.000226,0.147151,-0.007259,-0.441207,-0.155806,0.020677,0.114195,0.057384,-0.002028,0.004111,0.008279,0.000816,-0.032171,0.000333,-0.002025,
2.225003,0.002030,0.129216,-0.011123,-0.499251,-0.085567,0.036465,-0.043430,0.324318,-0.141203,-0.009195,0.079900,0.009550,-0.013898,-0.006863,0.004966,
2.225837,0.003643,0.156627,-0.001767,-0.177476,-0.087845,0.088108,-0.216028,0.575612,-0.263219,-0.109063,0.101820,0.007848,-0.013415,0.008822,0.000017,
2.226670,-0.000273,0.123606,0.017754,0.517756,-0.144093,0.088604,-0.167225,0.378422,-0.411967,-0.134039,0.058311,0.012171,0.003313,0.000238,0.003578,
2.227503,0.003869,0.072352,0.016464,1.055278,-0.067617,0.105823,0.042724,0.031251,-0.285613,0.111076,-0.015997,0.019447,0.000437,0.019114,-0.000520,
2.228337,-0.001931,0.007346,0.010385,1.215923,0.020329,0.157731,0.038625,-0.177930,-0.058277,-0.022464,-0.139261,0.019743,0.004826,-0.010538,0.002072,
2.229170,0.001863,-0.027741,-0.002162,1.374325,0.103428,0.121913,-0.100456,-0.208192,0.064298,-0.105672,-0.122261,0.037310,-0.001511,0.009245,-0.002526,
2.230003,-0.004885,-0.024202,-0.011561,1.091497,0.114339,0.048679,-0.183147,-0.205067,0.221649,0.000064,-0.067977,0.045282,-0.001012,-0.012176,-0.001948,
2.230837,0.001332,-0.034685,-0.014149,0.504700,0.178510,0.024964,-0.082012,-0.268605,0.204008,-0.077825,-0.107916,0.056016,-0.000219,0.007752,-0.000308,
2.231670,-0.000388,-0.061950,-0.008091,0.110369,0.234073,-0.058676,0.176732,-0.334056,0.045118,-0.627397,-0.237467,0.025873,0.001190,-0.001771,0.000417,
2.232503,0.004460,-0.182619,-0.021459,-0.210782,0.195096,-0.289094,0.206147,-0.353746,0.012157,-0.556123,-0.161029,0.028559,0.006741,-0.000158,0.005572,
2.233337,0.001994,-0.237715,-0.008927,-0.493513,0.074101,-0.502741,0.154264,-0.042408,0.054448,0.129394,0.003338,-0.004883,0.009280,0.000233,-0.000247,
2.234170,0.001529,-0.199790,-0.000856,-0.695216,0.013335,-0.264756,0.043531,0.209273,0.014643,0.487138,0.017947,-0.041627,0.012028,-0.013721,0.004480,
2.235003,0.001999,-0.129890,0.002610,-0.850168,0.072517,-0.120187,0.032196,0.268045,-0.203428,0.917047,0.043063,-0.050669,0.011794,0.009099,-0.001911,
2.235837,-0.003761,-0.101870,0.002852,-1.048456,0.249441,-0.011195,0.059690,0.195519,-0.585466,0.872800,0.104363,-0.084619,0.013629,-0.008060,0.000423,
2.236670,-0.001098,-0.028589,0.004455,-1.094317,0.446554,0.044989,0.092294,-0.023123,-0.508957,0.081140,0.161300,-0.083312,0.004266,0.015369,-0.005606,
2.237503,-0.005575,0.094703,0.013074,-0.780202,0.601582,0.082110,0.113528,-0.154584,-0.164530,-0.400692,0.219096,-0.082251,0.007671,-0.005758,-0.001377,
2.238337,0.003260,0.089363,0.005066,-0.343429,0.704175,0.119424,0.023446,-0.068245,0.189751,-0.055835,0.193551,-0.043686,0.007982,0.012788,0.001972,
2.239170,-0.000076,0.013881,0.006379,0.064796,0.710017,0.129647,-0.073284,0.058443,0.366471,0.181850,0.087280,-0.021113,-0.003038,-0.006661,0.002461,
2.240003,0.006090,-0.006711,-0.005562,0.213827,0.623083,0.028431,-0.140048,0.056430,0.609289,0.596252,0.137109,0.016821,0.003605,0.008529,0.004515,
2.240837,0.000393,0.001873,0.002819,0.227994,0.435093,-0.026109,-0.071412,-0.022080,0.781010,0.345408,0.180845,0.044860,-0.000930,-0.002222,-0.001478,
2.241670,0.000077,-0.011401,-0.000514,0.264633,0.224110,0.199055,-0.086956,-0.177061,0.074899,0.254186,0.150737,0.026005,-0.007948,-0.021059,0.001572,
2.242503,-0.002795,-0.009818,-0.001366,0.265051,-0.016028,0.299135,-0.172951,-0.204479,-0.358215,0.293080,-0.017003,-0.006862,0.008181,0.000846,-0.005562,
2.243337,-0.002880,0.002756,-0.009039,0.235132,-0.209504,0.037944,-0.173756,-0.148864,-0.085258,0.042704,-0.179254,0.004321,0.002741,-0.004408,0.000617,
2.244170,0.000122,0.011780,0.009583,0.190085,-0.354284,-0.020996,-0.065721,0.104249,0.049860,-0.252122,-0.243403,-0.008578,0.009141,0.009564,-0.003849,
2.245003,-0.002489,0.055208,0.000485,0.103626,-0.480888,-0.021871,-0.029810,0.518715,-0.145042,-0.576674,-0.300857,-0.019551,0.000059,-0.008962,0.002399,
2.245837,0.005004,0.104320,0.006546,0.046058,-0.582781,-0.010606,-0.008799,0.653423,-0.419921,-0.817639,-0.191249,0.019378,0.005390,0.010813,0.001352,
2.246670,0.000926,0.080501,0.018002,0.058228,-0.653729,0.042248,-0.013212,0.397912,-0.307566,-0.848703,-0.128352,0.027241,-0.003103,-0.009234,0.005368,
2.247503,0.004807,0.098470,-0.004362,0.141446,-0.685336,0.019346,0.078264,0.082244,-0.030278,-0.526880,-0.079048,0.039331,-0.001324,0.015125,0.001317,
2.248337,-0.001669,0.164608,0.004148,0.260532,-0.668702,-0.056124,0.226871,-0.126486,0.177463,-0.077180,-0.066978,0.031879,-0.017511,-0.004152,0.000641,
2.249170,0.001025,0.064661,-0.007891,0.356327,-0.620382,-0.102993,0.181601,-0.235889,-0.066489,0.275442,-0.050928,0.020014,-0.012308,0.000989,0.000741,
2.250003,-0.003138,-0.030491,-0.002488,0.309214,-0.536544,-0.134085,-0.024897,-0.255562,-0.129544,0.200953,-0.002498,0.017479,-0.026312,-0.006225,-0.003272,
2.250837,0.001553,-0.044264,-0.003145,0.271003,-0.452230,-0.113855,-0.037867,-0.171897,0.002482,0.011774,0.014243,0.024885,-0.013756,0.002434,0.003094,
2.251670,0.002734,-0.027171,0.000052,0.224558,-0.336054,-0.206339,0.016335,-0.188256,0.106064,0.148864,0.073164,0.027719,-0.015694,0.006673,-0.000308,
2.252503,0.001317,-0.050470,0.002521,0.111512,-0.214422,-0.197155,0.082453,-0.266599,0.205809,0.390244,0.167414,0.030532,-0.007414,-0.004646,0.004674,
2.253337,0.002789,-0.064565,0.004104,-0.047787,-0.079852,0.147766,0.242558,-0.292578,-0.068404,0.410386,0.171421,0.029930,0.015503,0.010741,-0.001799,
2.254170,-0.001552,-0.049600,-0.001611,-0.233629,0.038058,0.231651,0.235245,-0.176705,-0.549728,0.287258,0.198406,0.018691,-0.010730,-0.012623,0.001782,
2.255003,0.002786,-0.035149,-0.009595,-0.356895,0.124779,0.097381,0.071170,-0.105060,-0.332630,0.349273,0.142622,0.034904,0.013979,0.007504,-0.001371,
2.255837,-0.004190,-0.033228,-0.005202,-0.456196,0.193795,0.073172,-0.045068,-0.081977,-0.056379,-0.013981,-0.011969,0.024792,0.016232,-0.012800,-0.001648,
2.256670,-0.000051,-0.043785,-0.007665,-0.486846,0.254375,0.081208,-0.179558,0.040190,-0.173481,-0.327056,-0.033151,0.020783,-0.009165,0.006572,-0.004393,
2.257503,-0.007231,-0.022659,0.001172,-0.452078,0.244095,0.007813,-0.225656,0.228883,0.094622,-0.309631,-0.004575,0.011052,-0.003316,-0.005484,-0.005487,
2.258337,-0.003759,-0.036914,-0.007229,-0.353766,0.197559,-0.024789,-0.184585,0.237612,0.175914,-1.171669,0.022603,0.002083,0.024162,0.006876,-0.004321,
2.259170,-0.007337,-0.081735,0.005122,-0.147097,0.121408,-0.033230,-0.142710,0.204255,0.200862,-0.725456,0.068479,-0.019629,0.024588,-0.000750,-0.007306,
2.260003,-0.004078,-0.077376,-0.001298,0.051293,0.055916,-0.033069,-0.097727,0.026349,0.470960,0.338347,-0.003412,-0.046531,0.017336,-0.005323,-0.001927,
2.260837,-0.001002,-0.029074,-0.003907,0.144437,-0.013983,-0.009965,-0.038325,-0.139788,0.278289,-0.291725,-0.061746,-0.053669,-0.002175,0.006281,-0.004054,
2.261670,0.002045,0.017349,-0.006372,0.179858,-0.129139,-0.059894,-0.025659,-0.049506,0.242713,-0.513226,-0.051496,-0.058196,-0.015030,-0.006223,0.005693,
2.262503,0.005521,0.038053,-0.003047,0.277843,-0.245880,-0.063078,-0.116454,0.070024,0.392627,-0.108651,-0.080138,-0.060477,-0.002771,0.009655,0.002445,
2.263337,0.000885,0.064434,0.008047,0.274699,0.024730,0.020616,-0.122984,0.269327,0.321353,0.326634,-0.104698,-0.046062,-0.013621,-0.008037,0.005125,
2.264170,0.004313,0.066851,0.004480,0.189661,0.380802,0.009910,-0.066561,0.331264,0.267475,0.230180,-0.108139,-0.026589,0.007195,0.011045,0.001682,
2.265003,-0.001281,0.023447,0.010052,0.171036,0.498700,-0.058579,0.014106,0.085525,0.202206,0.457478,-0.097217,-0.052286,0.018777,-0.009700,0.003104,
2.265837,0.003483,-0.063993,0.001416,0.180951,0.560082,-0.052102,0.069167,-0.137272,0.083457,0.789426,0.000044,-0.054813,0.019748,0.007090,0.000698,
2.266670,-0.003364,-0.043238,0.011530,0.197693,0.600765,-0.020260,0.062807,-0.130886,-0.215570,0.707777,0.034685,-0.046845,-0.018734,-0.004961,-0.002940,
2.267503,0.000308,0.004782,0.010330,0.261635,0.570893,0.018477,0.270938,0.124293,-0.488127,0.780016,0.015069,-0.015414,-0.004966,0.010758,0.000282,
2.268337,-0.004267,0.042001,0.007735,0.389034,0.470106,0.021982,0.399397,0.267162,-0.634138,0.797332,0.001903,0.006530,-0.004563,0.001755,-0.005046,
2.269170,-0.002133,0.057045,-0.006178,0.518168,0.330152,0.065772,0.116163,0.064625,-0.526819,0.104364,0.040338,0.028001,-0.002266,-0.008012,0.000154,
2.270003,0.000611,0.086897,-0.000738,0.342419,0.209579,0.142198,-0.037840,-0.088361,-0.285053,-0.224286,0.046288,0.030859,-0.000821,0.004039,-0.001663,
2.270837,0.001525,0.124885,-0.001735,0.031707,0.191000,0.120015,0.026486,-0.129791,-0.116820,-0.198219,0.059576,0.044880,0.002065,-0.007257,0.005678,
2.271670,0.006258,0.141739,-0.010543,-0.277442,0.208548,0.005913,-0.012697,-0.142461,-0.004414,-0.444463,0.087837,0.054524,-0.000318,0.006472,0.001124,
2.272503,0.001690,0.047905,-0.009615,-0.584279,0.207055,-0.067537,-0.130252,-0.185206,0.091557,-0.463537,0.072486,0.057983,-0.004453,-0.015351,0.006343,
2.273337,0.005980,-0.071016,-0.011159,-0.930139,0.175350,-0.058246,-0.136717,-0.305559,0.121082,0.042285,0.084497,0.063366,-0.006060,-0.003756,0.002416,
2.274170,-0.000859,-0.106092,0.001457,-1.052047,0.098840,-0.007289,-0.072442,-0.268453,0.024553,0.132766,0.068504,0.024765,-0.016878,-0.009551,0.002008,
2.275003,0.004671,-0.093970,-0.005639,-0.830593,-0.018169,0.021066,-0.056363,-0.092712,0.056099,-0.256637,0.101293,-0.007905,-0.012175,0.009530,0.002983,
2.275837,0.001821,-0.057883,0.002648,-0.597656,-0.178834,0.027101,-0.092681,0.178130,0.130508,-0.015382,0.081586,-0.016930,-0.007960,-0.003883,0.002901,
2.276670,0.004934,-0.048843,-0.004656,-0.265774,-0.310268,0.015216,-0.032860,0.187598,0.105360,0.220571,-0.115689,-0.017555,-0.008187,0.007433,0.004202,
2.277503,0.000734,-0.022199,0.005717,0.228902,-0.414413,0.026746,0.016814,-0.105381,0.043019,-0.091171,-0.272884,-0.010691,0.002114,0.006399,-0.001047,
2.278337,0.002955,-0.016774,0.007676,0.658810,-0.493845,0.052673,0.197700,-0.246561,-0.006497,-0.520215,-0.334697,0.019995,-0.001303,0.004004,0.004088,
2.279170,-0.000764,0.002149,0.008549,0.811674,-0.523202,0.058813,0.461191,-0.206195,-0.019867,-0.540754,-0.266569,0.059855,-0.002553,0.009863,-0.004347,
2.280003,-0.006455,0.080574,0.004829,0.934065,-0.516930,0.005035,0.296953,0.014192,0.009915,-0.302887,-0.129761,0.080963,-0.014742,-0.012035,-0.003009,
2.280837,-0.006031,0.102300,-0.002106,0.907884,-0.510608,-0.041666,0.103473,0.211049,0.032641,-0.089866,-0.061976,0.075077,-0.009323,0.008198,-0.011122,
2.281670,-0.012310,-0.014241,-0.001114,0.611226,-0.493205,-0.096681,0.062271,0.205245,0.127813,-0.006655,0.043988,0.017013,-0.013595,-0.013209,-0.007783,
2.282503,-0.007592,-0.074435,-0.011875,0.204169,-0.446897,-0.100934,-0.103037,0.247175,0.310699,0.040818,0.161666,-0.021518,0.004345,0.001718,-0.010846,
2.283337,-0.012018,-0.045260,-0.009360,-0.211947,-0.397987,-0.327212,-0.446034,0.253987,0.355642,0.334373,0.174866,-0.069663,0.011852,-0.017214,-0.007643,
2.284170,-0.000715,-0.004929,-0.004551,-0.561267,-0.347101,-0.228598,-0.479668,0.173947,0.312264,0.190163,0.136761,-0.098587,0.029685,0.008580,-0.002602,
2.285003,-0.002829,0.028006,0.003317,-0.676988,-0.294103,0.044816,-0.327670,0.176268,0.331517,-0.293132,0.170709,-0.096693,0.030536,-0.001621,-0.001824,
2.285837,0.002698,0.035914,-0.001314,-0.512852,-0.192303,0.054548,-0.243907,0.139022,0.018409,-0.851218,0.183378,-0.084731,0.031341,0.006503,0.003388,
2.286670,0.004880,0.047552,0.007193,-0.253006,-0.074570,0.074251,-0.125774,-0.042328,-0.713202,-0.295845,0.104312,-0.063914,0.026149,0.008231,0.002507,
2.287503,0.008600,0.039191,0.027774,-0.149496,-0.002119,0.114515,0.143546,-0.162564,-0.929388,0.633505,0.007390,-0.027519,0.026400,0.004477,0.011400,
2.288337,0.011415,0.024646,-0.006555,-0.064053,0.062568,0.042955,0.252422,-0.200487,-0.360114,1.318372,-0.028945,0.000665,0.018046,0.012175,0.007792,
2.289170,0.006613,-0.007438,0.004611,0.003502,0.122967,0.070351,0.189387,-0.109107,0.077541,1.189783,0.036196,0.033321,0.005352,-0.006519,0.011059,
2.290003,0.008687,-0.031636,-0.001438,-0.064003,0.172138,0.023873,0.073594,-0.019495,-0.157818,0.838883,0.179756,0.057041,0.003106,0.009273,0.003350,
2.290837,0.000699,-0.025717,-0.027450,-0.089256,0.226869,0.056304,-0.033005,-0.006409,-0.099849,-0.114961,0.072577,0.061624,-0.005489,-0.011252,0.005261,
2.291670,0.004316,-0.041447,-0.000026,-0.037476,0.273325,0.063459,-0.035347,0.142114,-0.008857,-1.350021,-0.197032,0.031684,-0.009155,0.013384,0.000771,
2.292503,-0.003965,-0.039945,0.018729,0.089628,0.301812,0.040327,-0.008041,0.146263,-0.115692,-1.630413,-0.221100,0.003563,-0.031863,-0.034315,-0.000967,
2.293337,0.000882,-0.058764,0.002572,0.287272,0.318949,0.047951,0.088282,-0.136893,0.139963,-1.071250,-0.197742,0.018484,-0.032275,0.011814,-0.001175,
2.294170,-0.005257,-0.086467,-0.000129,0.301620,0.307056,0.023464,0.087147,-0.366720,0.290587,-0.027361,-0.219944,0.013454,-0.023830,-0.003107,-0.005349,
2.295003,-0.002395,-0.074681,0.011390,0.062212,0.298590,-0.009649,-0.043964,-0.461817,-0.059794,-0.393210,-0.114587,0.014744,-0.030343,0.000415,-0.001283,
2.295837,-0.004266,-0.038804,-0.006818,-0.106699,0.255735,-0.013420,-0.046291,-0.419661,0.049796,-0.567637,-0.055081,0.029855,-0.027257,0.006509,-0.006223,
2.296670,-0.002939,-0.007806,-0.015692,0.036859,0.209843,0.025695,-0.040882,-0.207202,0.269882,0.146553,-0.009455,0.010745,-0.021293,0.000065,0.000125,
2.297503,-0.001466,0.036655,-0.008978,0.192674,0.208628,0.034713,-0.121191,-0.098397,0.304670,0.943370,0.048304,-0.023186,-0.012456,0.012516,-0.004826,
2.298337,-0.004886,0.144970,-0.015212,0.148084,0.154252,0.040892,-0.114734,0.159387,0.243777,1.702513,0.151076,-0.035449,0.001998,-0.013210,0.000134,
2.299170,-0.000229,0.204116,-0.005710,0.118100,0.095987,-0.060960,-0.004392,0.513295,0.201350,1.824189,0.235607,-0.010919,0.004365,-0.012567,-0.004377,
2.300003,-0.005656,0.153720,0.005031,0.125133,0.069681,-0.050114,-0.005159,0.513889,0.207883,0.677697,0.191797,-0.015801,0.001359,-0.007988,-0.001117,
2.300837,0.003248,0.058839,0.012275,0.235512,0.058851,0.027432,-0.032381,0.281788,-0.065203,-0.518336,0.137970,-0.013003,0.016937,0.011971,0.001521,
2.301670,0.000388,-0.011499,0.027160,0.369827,0.045185,0.040081,-0.152649,0.144054,-0.459303,-1.655594,0.075109,-0.006628,0.015701,-0.005789,0.002010,
2.302503,0.004839,-0.065165,0.009092,0.325055,0.018617,0.069859,-0.035253,0.109123,-0.333669,-0.952246,0.056386,0.017221,0.030153,0.005566,0.004012,
2.303337,0.000577,-0.101024,0.007355,0.237521,-0.010910,0.027746,0.280309,0.052054,0.336120,0.349500,0.074551,0.020407,0.020774,0.005602,-0.000409,
2.304170,0.002864,-0.128620,-0.001403,0.047325,-0.041068,-0.088451,0.583761,-0.023324,0.264648,0.780324,0.029435,0.025370,0.019153,0.007748,0.003702,
2.305003,0.001168,-0.155205,-0.001772,-0.358831,-0.052557,-0.093537,0.729647,-0.076277,0.090614,0.333715,-0.033702,0.011366,0.012777,0.004530,-0.001507,
2.305837,-0.001911,-0.168957,-0.005813,-0.767538,-0.027865,-0.036684,0.496194,-0.099499,0.087560,0.050635,0.009602,-0.009849,0.007752,-0.010611,0.001663,
2.306670,-0.000273,-0.135928,-0.001473,-0.774629,-0.063564,-0.077524,0.150805,-0.131476,-0.068055,0.082730,-0.084674,-0.020725,0.006214,-0.011883,-0.004028,
2.307503,-0.003528,-0.067950,-0.001575,-0.585344,-0.073813,-0.003060,-0.085359,-0.040722,-0.200053,-0.258836,-0.240253,-0.021259,-0.006639,-0.008593,-0.000878,
2.308337,0.001447,0.020399,-0.005358,-0.397871,-0.056005,0.076996,-0.144343,0.202312,-0.101425,-0.008101,-0.260140,-0.018620,0.000322,0.014371,-0.004147,
2.309170,-0.003350,0.124451,-0.006110,-0.222225,-0.040699,0.068661,-0.206897,0.115387,-0.050385,0.050096,-0.239836,-0.012810,-0.015630,-0.013331,0.000207,
2.310003,0.002986,0.212374,-0.015736,-0.083338,-0.063076,-0.055355,-0.391967,-0.148819,-0.049561,-0.299320,-0.221411,0.023941,-0.000631,0.009470,0.000283,
2.310837,-0.002586,0.265295,-0.003108,0.106956,-0.076715,-0.240083,-0.421739,-0.236674,0.024326,-0.560507,-0.141175,0.027237,-0.020143,-0.002824,-0.000865,
2.311670,0.002522,0.155689,-0.004391,0.271446,-0.076710,-0.154974,-0.348269,-0.298849,0.037465,-0.566126,-0.076261,0.007905,0.000601,0.007926,0.001646,
2.312503,-0.001984,0.013744,0.010322,0.553892,-0.072050,0.011127,-0.251343,-0.306570,0.021632,0.106008,0.024081,-0.012850,-0.018965,0.000984,-0.001489,
2.313337,0.000682,-0.022125,-0.001997,0.582028,-0.090635,0.104169,-0.141585,-0.086254,-0.055761,0.460115,0.271193,-0.013675,-0.006362,-0.000455,0.003007,
2.314170,-0.000007,-0.014016,-0.004116,0.451738,-0.090308,0.013288,-0.170869,0.126291,-0.104589,0.290704,0.300044,-0.001143,-0.010723,0.002697,-0.001650,
2.315003,0.000374,-0.044480,-0.002748,0.315685,-0.101515,-0.038361,-0.183409,0.206344,-0.118462,0.392538,0.220308,-0.002883,0.001369,-0.005580,0.003921,
2.315837,0.004422,-0.057531,-0.003840,0.124057,-0.081732,-0.051470,-0.096918,0.205579,-0.106065,0.168217,0.092377,-0.001974,0.001534,0.010879,-0.000115,
2.316670,0.000084,-0.041135,0.005121,-0.110540,-0.058120,0.001339,0.008273,0.125470,-0.138151,-0.091401,0.117172,0.002025,0.003660,-0.006518,0.004096,
2.317503,0.003838,-0.043386,0.001096,-0.304538,-0.033685,-0.024065,0.049735,-0.035710,-0.123239,-0.426975,0.102390,0.010624,-0.001102,0.012573,-0.000841,
2.318337,-0.002624,-0.049976,0.004994,-0.365516,-0.019310,-0.092234,0.077520,-0.103143,-0.092040,-0.657712,-0.072255,-0.012974,0.009070,-0.008751,0.000639,
2.319170,0.001754,-0.038361,-0.001801,-0.284969,-0.006749,-0.028259,0.082199,0.016510,0.013106,-0.270428,-0.219289,-0.019658,0.001220,0.009159,-0.000314,
2.320003,-0.003932,0.006367,0.012909,-0.063388,-0.009669,0.079078,0.020945,0.127130,-0.025992,-0.298826,-0.494119,-0.018761,0.010903,-0.005106,-0.001411,
2.320837,0.001987,-0.005711,-0.003821,0.057652,0.010056,0.127554,0.073271,0.153908,-0.017810,-0.124642,-0.477363,-0.010158,0.002874,0.002315,0.001164,
2.321670,-0.000480,-0.013916,0.001262,0.065611,0.001345,0.202155,0.134116,0.113591,0.045169,0.227269,-0.044148,-0.002578,0.002768,0.000905,-0.001289,
2.322503,0.000416,-0.002732,-0.002817,-0.005812,-0.011289,0.447663,0.186467,-0.041463,0.078001,0.377330,0.434470,0.001658,-0.001008,-0.000182,0.002218,
2.323337,-0.001123,0.023366,-0.007054,0.029058,-0.003119,0.159690,0.167988,-0.195319,0.111713,0.484629,0.311078,0.003736,-0.001740,-0.009493,-0.003880,
2.324170,-0.002503,0.028469,0.009759,0.165162,-0.005667,0.033373,0.064240,-0.204721,0.120260,0.280882,0.193434,0.010942,-0.002781,-0.008108,0.001472,
2.325003,0.002225,0.032519,0.029769,0.085550,0.024215,0.032019,0.029078,-0.157426,0.123063,0.012203,0.218996,0.035138,0.002276,0.008702,-0.001867,
2.325837,-0.002350,0.049507,-0.005924,-0.038911,0.035887,-0.162901,-0.007055,-0.108076,0.076054,-0.250606,0.267945,0.041034,0.005653,-0.011403,0.002733,
2.326670,0.004217,0.039566,0.001251,-0.124029,0.064968,-0.125756,-0.011658,0.060208,0.066068,0.013247,0.314277,0.041710,-0.005010,0.010313,-0.000902,
2.327503,-0.002030,-0.000703,0.012533,-0.140855,0.024745,0.124141,0.007921,0.286240,0.061972,0.355169,0.210212,0.031019,0.007518,-0.008245,0.001112,
2.328337,0.003322,-0.044022,-0.013735,-0.051296,0.007836,0.203095,0.021415,0.318567,0.016588,-0.114572,-0.185025,0.020055,0.003567,0.007079,0.001449,
2.329170,-0.002463,-0.058532,0.006369,-0.063696,-0.015631,0.048768,0.045221,0.204815,0.062465,-0.665995,-0.288191,0.004350,0.004194,-0.005666,-0.001263,
2.330003,0.001366,-0.071573,-0.007722,-0.045991,-0.001802,-0.126053,0.074802,0.038553,0.051818,-0.309278,-0.164852,0.001866,-0.006011,0.002956,0.001670,
2.330837,-0.001976,-0.074777,-0.007181,0.064900,0.000736,-0.231704,0.064242,0.029322,-0.035291,-0.048182,-0.123951,-0.013222,0.001028,-0.000013,-0.004095,
2.331670,-0.001046,-0.084640,-0.012150,0.048686,-0.002564,-0.353830,0.044346,0.088675,-0.136584,0.037424,-0.106542,-0.019893,-0.006273,-0.001607,0.000820,
2.332503,0.000191,-0.077982,-0.005081,0.057983,-0.016914,-0.482993,0.017668,0.001527,-0.291739,0.001913,-0.076559,-0.014210,-0.001210,0.005500,-0.003726,
2.333337,-0.002846,-0.059084,0.008230,0.087611,-0.023562,-0.245510,0.014812,-0.200457,-0.217583,0.112631,-0.084140,-0.013442,-0.004532,-0.007077,0.002406,
2.334170,0.000983,0.031558,-0.010209,0.055772,0.002971,-0.019322,-0.012374,-0.340338,-0.028615,0.214663,-0.140957,-0.010282,0.000547,0.011322,-0.003061,
2.335003,-0.003885,0.191501,-0.008515,0.019656,0.008818,0.088643,-0.084440,-0.455397,0.205660,0.093386,-0.211066,-0.015115,-0.002297,-0.007055,0.000320,
2.335837,0.000860,0.214751,-0.006062,0.018118,0.031511,0.193340,-0.053951,-0.423295,0.229092,-0.197176,-0.196246,-0.024894,-0.008178,0.012408,-0.002711,
2.336670,-0.004466,0.148460,0.001426,0.018280,0.021146,0.274546,-0.007402,-0.282363,0.279291,-0.304593,-0.099434,-0.047701,-0.002903,-0.013451,-0.002235,
2.337503,0.001805,0.041920,0.000375,0.065978,0.045302,0.197150,0.004871,-0.126166,0.114106,-0.028475,0.136571,-0.028895,-0.004778,0.006310,0.000375,
2.338337,-0.000164,-0.030401,0.002845,0.115783,0.070687,0.014194,-0.028564,-0.137224,-0.223745,-0.273231,0.291880,-0.016671,0.002985,-0.004911,0.001152,
2.339170,0.004429,-0.050182,-0.004279,0.120571,0.078945,-0.118888,-0.042846,-0.269641,-0.205870,0.237155,0.244733,0.002432,0.007116,0.003852,0.005284,
2.340003,0.002767,-0.065173,0.007236,0.007265,0.061471,-0.191316,-0.031547,0.150520,0.352337,1.300977,0.110652,-0.002065,-0.000165,0.001926,0.000869,
2.340837,0.003090,-0.096873,-0.007005,-0.085127,0.038328,-0.305070,0.003367,0.822904,0.746191,1.424832,0.034312,-0.000515,-0.005273,-0.001229,0.006523,
2.341670,0.005245,-0.048675,-0.008392,-0.108092,0.009262,-0.155490,0.039496,0.832055,0.580002,0.977449,-0.047888,0.010952,0.000800,0.009493,0.000732,
2.342503,-0.000534,0.045414,-0.003480,-0.097954,-0.035155,0.043581,-0.066707,0.374852,-0.459055,-0.363853,-0.099291,0.008437,0.004475,-0.011991,0.002874,
2.343337,0.002233,0.067778,-0.002795,-0.084791,-0.035711,0.198225,-0.163974,0.075244,-0.854115,-1.057147,-0.148548,-0.010133,0.000873,0.008783,-0.002766,
2.344170,-0.005223,-0.034654,0.011979,-0.074717,-0.052235,0.432252,-0.262161,0.040331,-0.529030,-0.109051,-0.056760,-0.039961,0.005560,-0.012262,-0.001234,
2.345003,0.001056,-0.111088,0.005444,0.011759,-0.077741,0.366218,-0.086989,0.114279,-0.129063,0.747371,0.031766,-0.008194,-0.008623,0.015817,-0.003518,
2.345837,-0.004110,-0.109148,0.005371,0.092237,-0.087725,0.157926,0.138704,0.126882,0.084001,0.337107,0.018806,0.034120,-0.001849,-0.024169,-0.000918,
2.346670,0.000644,-0.118207,0.007336,0.159253,-0.052358,0.102184,0.144941,0.030285,0.119094,-0.237742,-0.002366,0.051954,-0.006315,0.005722,-0.001523,
2.347503,-0.005894,0.029629,0.009200,0.160188,-0.037817,0.106817,0.018665,-0.066367,0.102216,-0.744312,0.034054,0.024777,-0.005390,-0.004680,-0.005788,
2.348337,-0.001751,0.157863,0.013097,0.092183,-0.023322,0.128463,-0.014010,-0.151910,-0.362455,-1.237286,0.015494,-0.006151,0.005197,0.005204,-0.001049,
2.349170,-0.002337,0.093358,0.018717,0.022286,0.052929,0.101314,0.035766,-0.225560,-0.424987,-0.818219,0.110749,-0.050534,0.002859,0.002111,-0.004091,
2.350003,0.000586,-0.010641,0.001334,-0.030808,0.108372,-0.137801,0.053860,-0.235418,0.091212,-0.079338,0.210595,-0.028972,0.011395,-0.004345,0.004466,
2.350837,0.005493,-0.046817,-0.004421,-0.128333,0.111233,-0.389668,0.133514,-0.200383,0.347285,0.159092,0.000420,0.048360,0.006844,0.008419,0.002344,
2.351670,0.002160,-0.066853,-0.000083,-0.202561,0.085871,-0.441341,0.097288,-0.149723,0.260773,0.414335,0.089223,0.056534,0.012850,-0.010865,0.006329,
2.352503,0.002794,-0.059722,-0.005953,-0.211986,0.053882,-0.464251,-0.040139,-0.098042,-0.067048,-0.359213,0.116759,0.034342,0.006060,0.009063,-0.002195,
2.353337,-0.003743,-0.012421,0.002831,-0.237753,0.014722,-0.319008,-0.021774,-0.026058,-0.219035,-1.731856,0.009343,0.014158,-0.000870,-0.006260,0.001338,
2.354170,0.002995,0.033728,-0.000596,-0.174978,0.000180,-0.055583,0.141903,-0.035472,-0.158740,-1.510975,-0.063339,-0.006898,0.011886,0.013816,-0.000925,
2.355003,-0.003848,0.044718,0.006798,-0.058214,-0.010148,0.416438,0.153701,-0.057829,0.068806,-0.263151,-0.136066,-0.017830,-0.003439,-0.006088,0.000021,
2.355837,0.001211,0.024071,-0.008411,0.063356,-0.037287,0.683469,0.091351,-0.032440,0.197623,1.096581,-0.232940,-0.011466,0.003649,0.004983,0.000663,
2.356670,-0.002887,0.029315,-0.020597,0.141944,-0.048556,0.293629,-0.250767,-0.061102,0.141325,1.485955,-0.371195,-0.007038,-0.003631,-0.011412,-0.002049,
2.357503,0.000339,0.023058,-0.011455,0.116199,-0.033097,0.002470,-0.472491,-0.132223,0.135019,0.544316,-0.311873,-0.010207,-0.003317,0.002254,0.002260,
2.358337,-0.000862,0.038395,0.002836,0.080729,-0.029797,0.010431,-0.074776,-0.159121,0.089859,-0.034433,-0.069463,-0.014892,-0.006862,0.014394,-0.003501,
2.359170,-0.001149,0.042338,-0.003974,0.052023,-0.012385,-0.126115,0.235989,-0.031759,0.026692,0.360524,0.082297,-0.002352,-0.019919,0.000594,0.002334,
2.360003,0.001767,0.031343,-0.007929,0.017282,-0.018368,-0.321007,0.203857,0.077169,0.025557,0.445113,0.119910,0.007539,-0.004960,0.007090,-0.002512,
2.360837,-0.000966,-0.007609,-0.003994,-0.022102,-0.015359,-0.186713,0.075662,0.166784,0.078584,0.552632,0.166053,0.002533,-0.011275,-0.012811,0.002864,
2.361670,0.004690,-0.011552,-0.006513,0.003620,-0.017810,-0.069949,-0.086998,0.181129,0.055205,0.282817,0.178454,0.013407,0.007976,0.006350,-0.000765,
2.362503,0.000272,0.095137,-0.001749,0.031597,-0.008117,-0.124854,-0.274407,0.176855,0.029455,0.229131,0.285730,0.016459,-0.001837,-0.022705,0.003383,
2.363337,0.006835,0.166060,-0.009229,0.067172,0.012566,-0.203287,-0.275586,0.090370,0.056889,0.142063,0.354194,0.045969,0.004450,0.012176,0.003407,
2.364170,0.000423,0.069768,0.007977,0.196858,0.006782,-0.007864,0.038500,-0.142076,0.095697,0.120831,0.262517,0.037487,-0.006731,-0.002076,0.001899,
2.365003,0.003771,-0.043813,-0.004750,0.257062,-0.005539,0.062545,0.060643,-0.110452,0.041799,0.051410,0.119313,0.010185,0.005667,-0.002747,0.002215,
2.365837,-0.001433,-0.058176,0.010579,0.120952,-0.033598,0.234229,-0.282012,0.276810,-0.140386,-0.291843,0.031513,-0.003800,0.003806,-0.007993,-0.002055,
2.366670,-0.000082,-0.099120,0.005296,-0.052523,-0.026768,0.334619,-0.056931,0.418677,-0.154565,-0.546876,-0.023799,-0.014288,-0.009869,0.004006,0.002059,
2.367503,-0.002248,-0.114520,0.000924,-0.189271,-0.027028,0.247910,0.148170,0.300652,-0.058157,-0.064677,-0.208396,-0.024079,0.007374,0.005022,-0.003601,
2.368337,-0.003353,-0.078337,-0.000088,-0.313636,0.000561,0.209259,-0.035481,0.173129,-0.041331,0.271576,-0.250541,-0.023303,-0.003664,-0.008455,0.000648,
2.369170,-0.001566,-0.070420,0.004401,-0.319210,-0.003043,0.097989,0.045204,-0.008915,-0.072703,0.094562,-0.314586,-0.022230,0.005854,0.014083,-0.007472,
2.370003,-0.006651,-0.069747,0.000820,-0.255097,-0.017222,-0.346188,0.421647,-0.159280,-0.112652,0.010588,-0.388481,-0.026543,-0.012281,-0.002894,-0.002173,
2.370837,-0.000757,-0.076649,-0.001061,-0.164618,-0.016767,-0.453987,0.481016,-0.312614,-0.173434,-0.070167,-0.142630,-0.014762,-0.000839,0.009738,-0.004054,
2.371670,-0.004938,-0.040022,0.009748,-0.046253,-0.018575,0.079503,0.278641,-0.376911,-0.085877,-0.182598,-0.039815,-0.013769,-0.002993,-0.010431,-0.001364,
2.372503,0.001100,0.021210,-0.003216,0.083484,-0.018021,0.351467,0.173778,-0.275269,0.025766,-0.161719,0.080360,-0.008475,-0.003321,0.008319,-0.001885,
2.373337,-0.004003,0.031368,0.002773,0.199363,-0.047706,0.239286,-0.060883,-0.031634,0.065168,0.070648,-0.056725,-0.015220,0.002458,-0.010766,-0.003172,
2.374170,0.000964,0.017324,0.001929,0.320988,0.003203,0.089094,-0.209256,0.152748,0.129943,0.391440,-0.155772,-0.014325,0.003675,0.003881,0.001031,
2.375003,-0.001086,0.029762,-0.004681,0.387223,0.034363,-0.067138,-0.242338,0.016064,0.120412,0.253730,-0.102595,-0.010975,0.009034,-0.001756,-0.001785,
2.375837,0.003121,0.058792,0.000642,0.350946,0.049493,-0.264416,-0.162877,-0.175532,0.073158,-0.287413,-0.011131,-0.011113,-0.004495,-0.000516,0.004860,
2.376670,0.002297,0.065543,0.008740,0.192325,0.028351,-0.454270,0.047582,-0.244686,-0.014296,-0.949056,0.295820,-0.020827,0.013602,0.008670,-0.001004,
2.377503,0.000260,0.023350,0.006027,0.066077,0.026988,-0.372921,0.143211,-0.304868,-0.036546,-0.724046,0.349246,-0.020109,-0.005487,-0.009293,0.004886,
2.378337,0.002500,-0.004419,0.003791,0.071357,0.003179,-0.155751,0.092418,-0.239896,0.011868,-0.239074,0.222267,-0.011527,0.003553,0.006784,-0.001883,
2.379170,-0.002115,-0.002458,0.002176,0.025486,-0.031138,0.109471,0.010259,0.084420,0.008692,0.208805,0.142110,0.004640,-0.000167,-0.012527,0.003106,
2.380003,0.004264,0.002574,-0.005234,0.054773,-0.031994,0.031938,-0.074107,0.382652,-0.015126,0.146053,0.026084,0.015910,0.000902,0.007695,0.000778,
2.380837,-0.001249,0.010115,0.005358,0.044593,-0.012189,0.005446,-0.130128,0.667531,0.051013,0.134797,-0.013508,0.020940,0.004626,-0.012505,0.003190,
2.381670,0.005455,0.008306,0.006019,-0.111429,0.038810,0.035145,-0.129065,0.511408,0.058159,0.256873,0.080083,0.031664,0.002766,0.006828,0.003018,
2.382503,0.000725,0.008637,0.007116,-0.293972,0.043938,0.100234,-0.148200,0.192504,0.037878,0.272964,-0.005515,0.035904,0.004476,-0.008464,0.001633,
2.383337,0.004092,0.001381,0.003147,-0.386292,0.071079,0.149224,-0.158287,0.007493,0.021891,0.360060,-0.035657,0.035521,-0.006268,0.003722,0.004073,
2.384170,0.000906,0.004737,0.002193,-0.377358,0.075037,0.033409,-0.119672,-0.195110,-0.006599,0.233311,0.084063,0.026877,0.005627,0.001576,-0.000194,
2.385003,0.002915,-0.019409,-0.019254,-0.327372,0.095444,0.046870,-0.097960,-0.406426,-0.031729,0.178574,0.118917,0.022204,0.000482,0.000051,0.003634,
2.385837,0.001269,-0.020975,-0.011608,-0.237146,0.092580,-0.033003,-0.014230,-0.480567,-0.064642,0.015435,0.024599,0.005804,0.000570,0.010283,-0.002452,
2.386670,-0.001900,0.026769,-0.000205,-0.150798,0.062876,-0.168839,0.069936,-0.318797,-0.118760,-0.628606,-0.079165,-0.007049,0.011227,-0.002366,0.001538,
2.387503,0.001650,0.052284,0.004882,-0.032917,0.043655,-0.100216,0.100150,0.021972,-0.167526,-0.901203,-0.152299,-0.014816,0.004521,0.013218,-0.002862,
2.388337,-0.004109,0.043688,0.003498,0.064502,-0.020233,0.192777,0.061416,0.242202,-0.125931,-0.342001,-0.141753,-0.020541,0.004403,-0.008428,0.000215,
2.389170,0.001272,0.012901,-0.001611,0.137707,-0.055460,0.644111,0.065404,0.188986,0.050752,0.217104,-0.219693,-0.013233,-0.005767,0.012345,-0.002660,
2.390003,-0.004183,-0.010920,-0.008614,0.173809,-0.072468,0.634139,0.019639,0.106596,0.106965,0.278684,-0.222279,-0.011659,-0.001887,-0.014646,-0.001416,
2.390837,0.000887,-0.035548,-0.023914,0.174583,-0.071469,0.087462,-0.085641,0.101507,0.096906,0.101836,-0.257270,0.013627,-0.014786,0.007489,-0.000481,
2.391670,-0.003507,-0.031525,-0.004019,0.157379,-0.085019,-0.217154,-0.077233,0.064277,0.101022,0.009420,-0.314775,0.012726,-0.013189,-0.001513,-0.002297,
2.392503,-0.000123,-0.034859,-0.004465,0.145961,-0.095159,-0.293966,0.074790,0.020188,0.076014,0.034358,0.056698,0.009281,-0.008090,0.007324,0.000003,
2.393337,-0.004374,-0.061723,-0.008611,0.116181,-0.086665,-0.468828,0.083891,0.064253,0.076546,0.088388,0.284624,0.001604,-0.011395,0.002716,-0.005332,
2.394170,-0.003901,-0.079313,0.000641,0.067237,-0.068567,-0.203804,0.041031,0.110966,0.115018,0.137988,0.280187,0.001128,-0.002509,-0.002367,-0.001516,
2.395003,-0.002819,-0.034836,0.004993,0.027310,-0.043468,0.274117,0.002531,0.031329,0.108461,0.145629,0.103805,0.013793,-0.017601,0.006261,-0.005944,
2.395837,-0.003727,0.005476,0.000792,-0.004874,-0.035938,0.223728,0.028820,0.013118,-0.038298,0.124394,0.065378,0.013188,-0.002809,-0.016872,0.000000,
2.396670,0.000856,0.032915,-0.000962,0.009989,-0.010719,0.209527,0.040090,-0.037877,-0.493979,0.160105,0.153149,0.003268,-0.003303,0.010477,-0.003518,
2.397503,-0.003565,0.045027,0.005082,0.014299,-0.009901,0.169962,0.005191,-0.093333,-0.457302,0.246064,0.169662,-0.021624,0.005481,-0.009043,0.001354,
2.398337,0.001779,0.038436,-0.001816,0.007661,0.011710,-0.078716,0.034406,-0.256915,0.045831,0.312966,0.002296,-0.036171,0.003704,-0.021569,-0.001249,
2.399170,-0.003861,0.040741,0.005515,0.007371,0.025012,-0.549636,0.070150,-0.350600,0.171496,0.242935,-0.061332,-0.064795,0.003570,-0.008178,-0.000342,
2.400003,0.003624,0.032233,0.011368,0.020489,0.038596,-0.132229,-0.019493,-0.129381,0.155627,0.123132,-0.116601,-0.038842,0.018961,0.008241,0.001790,
2.400837,0.000278,0.035466,0.014532,0.011641,0.052360,0.400565,-0.001625,0.148071,0.143826,0.080811,-0.119119,0.000637,0.019206,-0.003741,0.000416,
2.401670,0.004415,0.018975,0.003875,-0.006032,0.063462,0.525490,-0.149510,0.165867,0.086983,0.053836,0.145031,0.036852,0.018796,0.000127,0.004999,
2.402503,0.003675,0.018584,0.005494,-0.022454,0.069822,0.454354,-0.245103,0.050783,0.061715,-0.145838,0.366395,0.035773,0.011929,0.002760,0.001043,
2.403337,0.003551,0.008012,0.001084,-0.036863,0.054104,0.172880,-0.240674,0.098976,0.012492,-0.282381,0.380177,0.019373,0.011115,-0.001942,0.006249,
2.404170,0.005569,0.004003,-0.014085,-0.041792,0.035134,-0.694024,-0.235772,0.061717,0.009965,-0.197943,0.229262,-0.004109,0.011773,0.009063,0.001390,
2.405003,0.003778,0.002400,0.000577,-0.045346,0.025784,-1.512182,-0.111315,-0.035824,0.037042,-0.123617,-0.049105,-0.011324,0.006423,-0.001908,0.007372,
2.405837,0.006874,-0.007519,0.014550,-0.032438,0.006577,-0.983303,0.254649,-0.064709,0.016348,-0.163841,-0.241880,0.007040,0.000860,0.019774,0.002831,
2.406670,0.000820,-0.016634,0.011047,-0.030254,-0.008703,-0.425332,0.493016,0.014129,0.024465,-0.145780,-0.670680,0.007959,-0.010258,-0.004317,0.005008,
2.407503,0.005142,-0.019185,0.002880,-0.015170,-0.027181,-0.014804,0.604831,0.076188,0.032378,-0.080758,-0.768430,0.021500,-0.002974,0.008525,0.002305,
2.408337,-0.001674,-0.006658,-0.001871,-0.009493,-0.050797,0.352068,0.371692,0.035116,0.024952,-0.072991,-0.411465,0.006319,-0.018944,-0.013872,0.000367,
2.409170,0.001426,-0.016161,-0.005501,-0.001809,-0.036027,0.078257,0.101299,0.043520,-0.048352,-0.054703,-0.292450,0.005610,-0.007660,0.001737,-0.000656,
2.410003,-0.005548,-0.028491,-0.002221,-0.005879,-0.022047,-0.134586,0.006272,0.030314,-0.134468,-0.138291,-0.070106,-0.005490,-0.018860,-0.005222,-0.005190,
2.410837,-0.001847,-0.038787,-0.004552,-0.010594,-0.005626,0.030969,-0.033879,0.030160,-0.062380,-0.094629,0.373468,-0.007742,-0.014086,0.001568,-0.001183,
2.411670,-0.003493,-0.021271,0.002449,0.000956,-0.012372,0.568079,-0.016971,-0.027867,0.015288,-0.107306,0.442670,-0.016851,-0.013472,0.004561,-0.005879,
2.412503,-0.004843,-0.018069,-0.001522,-0.002536,-0.011288,0.857231,-0.078906,-0.077667,-0.008311,-0.416949,0.325745,-0.014035,-0.015328,-0.005398,-0.001122,
2.413337,-0.004067,-0.040166,-0.013881,0.000725,-0.017161,0.502252,-0.156301,-0.063968,-0.005492,-0.545167,0.248159,-0.015148,-0.004079,0.007550,-0.007968,
2.414170,-0.007880,-0.033393,-0.010224,-0.010341,-0.003734,0.223106,-0.225883,-0.099040,0.006929,0.053753,0.185891,-0.011785,-0.016332,-0.010000,-0.004142,
2.415003,-0.002395,-0.002926,-0.001242,0.008038,0.002143,0.152381,-0.265424,-0.145462,-0.019749,0.469393,0.116275,0.001105,-0.000955,0.010614,-0.006734,
2.415837,-0.007145,0.014473,0.018244,0.025020,0.021677,0.347536,-0.180036,-0.035500,-0.041604,0.255221,0.045931,-0.006524,-0.005389,-0.006444,-0.002925,
2.416670,-0.000157,0.016686,0.001839,0.023344,0.016412,0.360744,0.037319,0.100572,-0.000365,0.499592,-0.026171,-0.001394,0.011430,0.014661,-0.002634,
2.417503,-0.004163,0.020519,-0.008959,-0.002038,0.018378,0.056927,0.065042,0.078009,0.086406,1.501226,-0.039586,-0.004245,0.003130,-0.006946,-0.000824,
2.418337,0.002502,0.017146,-0.007596,-0.012995,0.033662,-0.025376,-0.008570,-0.004736,0.100596,0.490619,-0.037950,0.005078,0.008636,0.005943,0.001590,
2.419170,0.001684,0.041994,0.010653,-0.006788,0.030654,-0.072928,-0.043908,-0.068896,0.102013,0.122597,-0.069343,0.001253,0.003091,-0.001148,0.002625,
2.420003,0.008033,0.063656,0.007944,0.007874,0.029622,-0.111404,-0.083658,-0.095678,-0.067120,0.272453,0.069605,0.010077,0.014124,0.000313,0.010370,
2.420837,0.007206,0.082621,0.003500,0.025188,0.013748,-0.153849,-0.124376,0.028467,-0.304720,-1.849013,0.298435,0.008819,0.011991,0.005439,0.004227,
2.421670,0.004547,0.043375,-0.004665,0.040572,0.001001,-0.300770,-0.174329,0.202386,-0.219242,-2.190190,0.182676,0.007400,0.014400,-0.004388,0.007544,
2.422503,0.005396,0.002864,-0.019905,0.074626,-0.017814,-0.392374,-0.290262,0.220550,-0.017132,-1.599968,-0.061369,0.016502,0.015253,-0.020015,0.000790,
2.423337,-0.000771,-0.026981,-0.010787,0.095004,-0.017562,-0.193811,-0.317402,0.114850,0.137587,0.188297,-0.210077,0.012623,0.002193,-0.007876,0.002887,
2.424170,0.002066,-0.057117,-0.004010,0.064481,-0.017362,-0.150614,-0.156636,0.010707,0.228138,1.990905,-0.298009,0.017426,0.006040,0.017075,-0.003254,
2.425003,-0.004247,-0.067983,0.008518,-0.021814,-0.015885,-0.152746,0.095553,-0.006904,-0.016010,1.764615,-0.249557,0.000995,-0.005406,-0.004675,-0.000694,
2.425837,0.002263,-0.077555,0.003760,-0.054767,-0.018516,-0.115330,0.196825,-0.022840,-0.098484,0.236678,-0.156503,0.006500,0.002945,0.011407,-0.000267,
2.426670,-0.002666,-0.060475,0.001561,-0.058007,-0.022098,-0.126965,0.197209,-0.041248,-0.176756,-0.798448,-0.093384,-0.003456,-0.008440,-0.018299,-0.000598,
2.427503,0.001719,-0.061883,-0.005857,-0.065538,-0.018891,-0.104721,0.202578,-0.071464,-0.219547,-0.692135,-0.035550,0.007733,-0.000356,0.005694,0.000295,
2.428337,-0.003196,-0.039639,0.005779,-0.073361,-0.032283,0.105310,0.187885,-0.124357,-0.012633,0.652006,0.036158,-0.005880,-0.008984,0.000224,-0.004147,
2.429170,-0.002000,0.017725,0.000921,-0.071522,-0.017455,0.208917,0.338024,-0.207740,0.288483,1.949111,0.093296,-0.011967,-0.004128,0.005727,0.000265,
2.430003,-0.000491,0.067961,0.002009,-0.052355,-0.006638,0.361439,0.181898,-0.210413,0.548588,1.486596,0.053561,0.000592,0.011293,-0.003280,-0.003252,
2.430837,-0.001263,0.066986,-0.003613,-0.045878,0.023174,0.415670,-0.173462,-0.081297,0.393053,-0.586733,0.024471,0.002937,-0.002720,-0.010621,0.001933,
2.431670,0.001177,0.062421,-0.000374,-0.026720,0.024189,0.158972,-0.188769,0.169658,0.115577,-1.659155,-0.017680,0.007102,0.012557,0.012237,-0.002338,
2.432503,-0.004462,0.051677,0.008378,-0.076323,0.036358,0.024501,-0.047888,0.318263,0.039003,-1.403974,-0.006568,-0.008450,-0.005917,-0.006725,0.000872,
2.433337,-0.000174,0.026821,-0.007411,-0.398508,0.040128,-0.026050,0.055063,0.125838,-0.082066,-0.721576,0.078661,-0.014746,0.013552,0.012906,-0.004152,
2.434170,-0.006256,0.017755,0.008267,-0.446672,0.038835,-0.061623,0.138941,-0.073788,-0.148784,-0.115499,0.216440,-0.017755,-0.000623,-0.004855,-0.002611,
2.435003,0.001098,0.004939,0.011166,-0.115359,0.038265,0.087682,0.224244,-0.131414,-0.290118,-0.258930,0.125195,-0.010477,0.006011,0.012928,-0.001524,
2.435837,-0.002680,0.004226,0.007853,0.179640,0.019638,0.043095,0.415665,-0.083994,-0.374556,-0.359901,-0.001793,-0.008337,-0.000594,-0.010037,-0.000281,
2.436670,0.003465,-0.009121,-0.016318,0.347988,0.018048,-0.425650,0.556324,0.019008,-0.209237,0.157962,0.021430,0.005283,-0.002755,0.004989,0.003255,
2.437503,0.003665,-0.003542,-0.019077,0.609694,-0.006025,-1.035026,-0.050696,0.166128,-0.095827,0.435649,0.003474,0.003669,0.008667,-0.014779,0.001452,
2.438337,0.007378,-0.002562,-0.004239,0.702422,-0.027852,-0.840149,-0.703874,0.407706,0.049611,0.865386,-0.040749,0.004818,0.004209,-0.007845,0.008044,
2.439170,0.005754,-0.006058,0.015686,0.543105,-0.056268,-0.370433,-0.472070,0.338919,0.183768,1.088070,-0.010263,0.005671,0.005378,0.012671,0.000447,
2.440003,0.000775,-0.010400,0.014909,0.405415,-0.059817,0.000373,-0.193572,0.053762,0.100996,0.993182,0.045767,0.006073,-0.000344,-0.002212,0.005515,
2.440837,0.002816,-0.008752,-0.031141,0.236164,-0.043203,0.200194,-0.015160,-0.163482,-0.050339,0.746250,-0.046632,0.010753,-0.000142,0.013123,-0.001472,
2.441670,-0.001858,-0.010456,-0.011078,0.002147,-0.044534,0.353634,-0.015723,-0.305161,-0.125065,0.659619,-0.079648,0.005216,-0.003777,-0.019905,0.001763,
2.442503,0.002010,-0.028360,0.048847,-0.306955,-0.035084,0.354877,-0.035823,-0.301354,-0.002415,0.575383,-0.002623,-0.004430,-0.017650,0.011771,-0.001412,
2.443337,-0.004501,-0.024652,0.004433,-0.768753,-0.030981,0.301637,0.206347,-0.253634,-0.003814,-0.624413,0.006995,-0.013448,-0.021608,-0.009490,-0.000471,
2.444170,0.000580,-0.027131,-0.016611,-0.924038,-0.023934,0.190737,-0.014339,-0.254558,-0.105531,-2.202826,0.067029,-0.012371,-0.048134,-0.000528,-0.001365,
2.445003,-0.005178,-0.009729,0.011797,-0.652962,-0.027468,0.392342,-0.512372,-0.168096,-0.140246,-3.220854,0.078033,-0.014156,-0.041209,-0.013373,-0.003179,
2.445837,0.000043,0.001898,0.020528,-0.357794,-0.019097,0.610072,-0.414987,-0.004383,-0.039823,-2.229045,0.083704,0.004860,-0.014539,0.013162,0.000801,
2.446670,-0.003441,0.035045,0.012317,-0.002414,0.004896,0.228132,0.281128,0.046552,0.102735,0.301482,-0.010031,0.001205,-0.012500,0.015297,-0.003618,
2.447503,-0.002661,0.033241,-0.002163,0.246531,0.044109,0.153199,0.417788,-0.019463,0.134912,1.292181,-0.104663,-0.005728,0.007665,-0.004222,-0.000260,
2.448337,-0.002497,0.003341,-0.005832,0.279782,0.061972,0.473121,-0.023975,-0.087429,0.060428,0.534589,-0.145761,-0.005545,-0.008792,-0.001297,-0.006063,
2.449170,-0.004326,-0.045504,-0.002973,0.297547,0.054566,0.492314,-0.156145,-0.103079,0.052675,-0.010292,-0.205534,-0.000365,-0.002022,-0.007819,0.000184,
2.450003,0.000857,-0.016251,0.005187,0.289631,0.051689,0.110101,0.252405,-0.048625,0.120232,0.609489,-0.153075,0.005559,0.020532,0.021986,-0.003341,
2.450837,-0.002053,0.018166,-0.004249,0.239589,0.059021,-0.002438,0.690008,0.111107,0.193689,1.095950,-0.078266,0.009193,0.026859,-0.004504,0.001218,
2.451670,0.004339,0.005111,-0.042731,0.195535,0.063013,-0.619706,0.556045,0.298662,0.176006,0.851610,-0.045951,0.011471,0.031180,0.008689,-0.000025,
2.452503,-0.002244,-0.002917,-0.017643,0.087485,0.056970,-1.161139,0.356323,0.385753,0.065645,0.550762,0.049617,-0.003307,0.012312,-0.012292,0.000256,
2.453337,0.003835,-0.005599,-0.001009,-0.092127,0.027784,-0.754726,0.064592,0.184412,0.040801,0.624733,-0.198656,-0.001403,0.020482,0.001828,0.001299,
2.454170,-0.000160,0.001050,0.013426,-0.234442,-0.018740,0.330487,-0.167154,0.047111,-0.004310,0.411811,-0.392514,-0.007061,0.014052,-0.010753,0.000357,
2.455003,0.003169,-0.003093,-0.015841,-0.220678,-0.040184,0.559609,-0.427680,0.166994,-0.107123,0.000660,-0.156138,0.003686,0.015621,-0.000751,0.004299,
2.455837,0.001158,-0.007478,-0.004122,-0.065867,-0.046015,-0.020052,-0.481772,0.291477,-0.075441,-0.124448,0.406537,0.003844,0.021538,0.004519,0.000003,
2.456670,0.001741,-0.019712,0.005558,-0.027354,-0.041894,-0.082169,-0.339085,0.293836,-0.013549,-0.484843,0.457915,0.007155,-0.005120,0.001087,0.005322,
2.457503,0.001870,-0.013067,0.003590,-0.004664,-0.042334,0.067992,-0.205153,0.104858,-0.023145,-0.525386,0.158911,0.011032,0.000956,0.012756,-0.001715,
2.458337,-0.001052,0.001648,0.005546,0.119158,-0.031185,-0.091933,-0.095803,-0.000600,-0.091945,-0.342218,0.190886,0.004495,-0.014715,-0.021513,0.002848,
2.459170,0.001982,0.005536,0.000142,0.203800,-0.018545,-0.213917,-0.154531,-0.092231,-0.126946,-0.035168,-0.044277,0.008298,0.007519,0.010280,-0.002503,
2.460003,-0.002457,0.008692,0.002493,0.129696,-0.026569,-0.212647,-0.319866,-0.203724,-0.132188,0.330859,0.046524,0.001080,0.001572,-0.011497,0.000847,
2.460837,0.002874,0.001525,0.004674,0.016844,-0.011346,-0.142705,-0.206809,-0.278734,-0.068679,0.527987,0.139454,0.005270,-0.001446,0.015085,-0.000223,
