time(sec),semimem,bifem,vasmed,vaslat,rf,medgas,latgas,tfl,tibant,peronl,soleus,addmagnus,gmax,gmed, sartorius
3.316667,0.000107,0.001552,-0.000040,-0.001520,0.001291,-0.005636,-0.004563,0.001709,0.001540,-0.000876,-0.002958,0.000268,0.000442,-0.000069,0.000128,
3.317500,0.003985,0.016624,-0.003986,-0.040725,0.006842,-0.037888,-0.049430,0.028718,-0.009358,-0.003327,-0.056544,0.008483,0.000013,0.001424,0.003762,
3.318333,0.001007,0.026393,-0.000911,-0.137039,0.010306,-0.105159,-0.059225,0.036931,0.011170,-0.004365,-0.112134,0.003708,0.001008,0.004572,-0.001591,
3.319167,0.000636,0.050818,-0.001500,-0.214127,0.006810,-0.077771,-0.100378,0.031260,0.010253,-0.009172,-0.143031,0.013253,0.005697,0.000222,0.002227,
3.320000,0.002873,0.082708,-0.001939,-0.187861,0.004908,-0.116573,-0.133569,-0.000629,0.001857,0.007431,-0.210267,0.018047,0.011777,0.012180,-0.000652,
3.320833,-0.000520,0.098851,-0.000552,-0.163005,0.007045,-0.106076,-0.192571,-0.018120,-0.040024,0.027593,-0.163841,0.001760,-0.002587,-0.033402,0.003353,
3.321667,0.004345,0.116481,-0.003290,-0.130925,0.017498,-0.078498,-0.195793,-0.022713,-0.023899,-0.008046,-0.065688,-0.012258,0.000131,0.011946,-0.000407,
3.322500,-0.000691,0.096071,0.001746,-0.105398,0.009566,-0.041029,-0.149532,-0.005380,-0.056176,-0.088654,-0.058459,-0.020192,-0.008000,-0.003750,0.001190,
3.323333,0.003143,0.011684,-0.002687,-0.078809,0.013154,0.041711,-0.044056,0.023373,-0.045803,-0.066381,0.057913,-0.018987,-0.008219,0.008779,0.001277,
3.324167,-0.001244,-0.031696,0.000957,-0.053888,0.007508,0.065486,0.034545,0.041443,-0.022115,0.009023,0.185492,-0.007875,-0.008920,-0.000971,-0.001825,
3.325000,0.002627,-0.066558,-0.001056,-0.026471,0.008646,0.073154,0.127294,0.023521,-0.003906,0.043555,0.208948,-0.002263,-0.005984,0.003014,0.003175,
3.325833,0.002549,-0.108451,-0.000180,-0.003347,0.010151,0.024716,0.140634,0.002734,-0.013622,0.027898,0.089248,-0.000467,-0.011158,0.002427,-0.000053,
3.326667,0.001420,-0.144228,0.000685,0.009030,0.009117,0.001635,0.074092,-0.004574,-0.014647,0.046725,-0.102018,0.001794,-0.018942,-0.005779,0.003292,
3.327500,0.001222,-0.094366,0.000012,0.025292,0.012708,0.079268,0.056742,-0.038827,0.007668,0.064013,-0.093220,-0.013023,-0.013461,0.009219,-0.002204,
3.328333,-0.004150,-0.010560,0.002074,0.067121,0.002301,0.114615,0.089030,-0.075447,0.000391,0.045112,0.044252,-0.015763,-0.011030,-0.003692,-0.000825,
3.329167,-0.000964,0.007740,-0.001521,0.094577,-0.005177,0.087209,0.103959,-0.044234,0.018626,0.016557,0.178580,0.002277,-0.002789,0.008591,-0.002950,
3.330000,-0.003719,0.030765,0.002351,0.134272,-0.015072,0.063859,0.020038,0.029181,0.005641,-0.024717,0.057549,0.003570,-0.000778,-0.007794,-0.001256,
3.330833,0.000097,0.036737,-0.001874,0.125866,-0.013505,0.086658,-0.053184,0.091855,0.003738,-0.045614,-0.057907,0.006737,0.013328,-0.001118,-0.000322,
3.331667,-0.002337,0.035009,0.002283,0.044742,-0.017876,0.042518,-0.045070,0.052082,0.015709,-0.089939,-0.008020,0.009802,0.019402,-0.002966,-0.002439,
3.332500,-0.000798,0.034174,-0.000893,-0.017274,-0.016439,-0.034856,-0.035581,-0.007741,0.005895,-0.071497,0.059506,0.021164,0.009831,0.000091,0.001243,
3.333333,-0.000780,0.033208,0.000349,-0.059439,-0.031929,-0.103818,-0.034949,-0.035128,0.006696,-0.037749,0.047932,0.017633,0.014078,0.003170,-0.002553,
3.334167,-0.001371,0.021170,0.000821,-0.116395,-0.031386,-0.057105,-0.027159,-0.025966,0.002606,0.021208,0.028058,0.021184,0.009424,-0.004562,0.001431,
3.335000,0.002158,0.012448,-0.001003,-0.153350,-0.011601,-0.045017,-0.018774,0.004934,0.013821,0.052265,0.041995,0.022361,0.002596,0.007258,-0.001455,
3.335833,-0.001483,0.017001,0.001441,-0.149851,-0.016515,-0.144597,-0.034672,0.010869,-0.005222,0.052362,-0.021494,0.004531,0.010087,-0.005772,0.001913,
3.336667,0.002198,0.005724,-0.002070,0.011306,-0.015297,-0.272974,0.002966,-0.010005,0.003976,0.025155,-0.092981,-0.007283,0.018937,0.011736,-0.000370,
3.337500,-0.003277,-0.000749,0.002960,0.222103,-0.011449,-0.168893,0.054316,-0.018796,0.022245,0.013971,-0.117684,-0.021320,0.007186,-0.003392,-0.001435,
3.338333,0.000095,-0.013525,-0.002694,0.134195,0.014417,0.025014,0.039729,-0.015216,-0.017954,0.022927,-0.129169,-0.021869,0.008258,0.002707,-0.000978,
3.339167,-0.002028,-0.020672,0.001873,-0.026577,0.003565,0.047860,0.020700,-0.038350,-0.020897,-0.008256,-0.149551,-0.015493,0.001411,-0.003385,-0.002355,
3.340000,0.000272,-0.014842,-0.001343,0.027724,0.004677,0.035650,0.009750,-0.082878,-0.029412,-0.013965,-0.146320,-0.008912,-0.016249,-0.001529,0.001757,
3.340833,0.000586,-0.003797,0.000170,0.099647,0.011200,0.108063,0.005206,-0.068873,-0.006222,-0.010227,-0.047899,-0.010524,-0.008248,0.003391,-0.000694,
3.341667,-0.000324,0.016145,0.000615,0.072754,0.020546,0.212356,-0.033968,-0.014365,-0.008815,-0.053651,0.050360,0.002250,-0.015016,-0.005871,0.002499,
3.342500,0.002732,0.015242,-0.001228,0.026672,0.027987,0.148390,-0.050997,0.004626,0.002517,-0.059859,0.059056,0.001935,-0.015798,0.000287,-0.000719,
3.343333,-0.000929,0.002814,0.001659,-0.075256,0.023149,0.050494,-0.020691,0.079009,0.012390,-0.024271,0.031457,-0.000488,-0.010439,-0.008502,0.002013,
3.344167,0.003039,-0.006484,-0.002014,-0.106126,0.020829,-0.014448,-0.036112,0.225535,0.006787,-0.012349,0.041276,0.007180,-0.003512,0.005905,0.000931,
3.345000,-0.001540,0.005056,0.002555,-0.095450,0.014157,-0.070344,-0.038958,0.212387,0.030428,-0.004561,0.080738,0.001584,-0.007530,-0.006234,0.000306,
3.345833,0.002272,0.008291,-0.002336,-0.068940,0.014262,-0.121121,-0.000674,0.119178,0.052957,0.029458,0.190135,0.001791,-0.003417,0.005125,0.001209,
3.346667,-0.000172,0.012838,0.001472,-0.022567,0.013810,-0.250206,0.020927,0.026285,0.035156,0.075822,0.211078,0.000163,0.001351,-0.000147,-0.000940,
3.347500,0.001503,0.010150,-0.000059,0.024488,0.022706,-0.115775,0.025710,-0.050916,0.029967,0.077461,0.085277,0.019578,0.005095,-0.000081,0.003475,
3.348333,0.001652,0.029679,0.000548,0.084920,0.015603,0.130982,0.021629,-0.092011,0.019065,0.068402,-0.058037,0.023407,0.013308,0.005019,-0.001112,
3.349167,-0.000489,0.030071,0.000852,0.109763,0.007744,0.180784,0.030979,-0.100080,0.002278,0.028804,-0.038668,0.013626,0.005695,-0.006060,0.002390,
3.350000,0.001490,0.013310,-0.002048,0.086353,0.000332,0.114505,0.023718,-0.097269,0.005979,-0.013260,0.050593,0.005636,0.007279,0.007882,-0.002040,
3.350833,-0.002787,0.002744,0.001920,0.027339,-0.003751,0.059553,0.001386,-0.099922,-0.006634,-0.029718,0.062633,-0.016744,0.008138,-0.007172,0.000551,
3.351667,0.001175,-0.021310,-0.002046,-0.018026,-0.010779,0.037125,0.002449,-0.125898,-0.009805,-0.022861,-0.011108,-0.015527,0.011322,0.009354,-0.000518,
3.352500,-0.002950,-0.031382,0.002229,-0.040171,-0.020919,0.025074,0.014101,-0.094019,-0.018367,-0.036334,-0.015315,-0.008114,0.001110,-0.013035,-0.002501,
3.353333,0.000859,-0.033876,-0.002194,-0.056244,-0.012669,0.031149,0.016363,-0.002441,-0.010230,-0.039928,-0.052082,0.003353,0.000693,0.003632,-0.000058,
3.354167,-0.001283,-0.039312,0.000403,-0.064941,-0.024644,0.009995,0.004512,0.047992,-0.026168,-0.047073,-0.194205,-0.000203,-0.003057,-0.000306,-0.002647,
3.355000,-0.000526,-0.083845,-0.000510,-0.073210,-0.026639,-0.011273,-0.012749,0.046170,-0.027301,-0.034727,-0.236609,-0.000016,-0.012585,-0.003028,0.001173,
3.355833,0.000537,-0.126877,-0.000202,-0.062830,-0.031321,-0.013782,-0.006121,0.008453,-0.017627,-0.015863,-0.193945,-0.010583,-0.006686,0.005687,-0.002329,
3.356667,-0.001453,-0.117126,0.000868,-0.052821,-0.039298,-0.025510,-0.012985,-0.009882,-0.027688,-0.008483,-0.099317,-0.013898,-0.010086,-0.005134,0.001952,
3.357500,0.002051,-0.067860,-0.001266,-0.023758,-0.034851,-0.040255,-0.013047,-0.027102,-0.013560,0.024951,0.003186,-0.008280,-0.010275,0.008759,-0.000938,
3.358333,-0.002380,-0.049259,0.001481,0.023483,-0.006678,-0.038692,-0.024621,-0.029579,-0.014324,0.028595,0.103967,-0.010510,-0.006344,-0.007261,0.000752,
3.359167,0.001735,0.021538,-0.001876,0.075661,0.005865,-0.027283,-0.011088,-0.016350,0.006782,-0.018453,0.160777,0.001237,0.001856,0.008758,0.000154,
3.360000,-0.002085,0.085174,0.002243,0.125789,-0.003921,-0.025457,-0.006022,0.018430,-0.007163,-0.010140,0.122979,-0.002633,-0.003990,-0.004372,0.000320,
3.360833,0.000963,0.099684,-0.001421,0.180305,0.012199,-0.016629,0.000490,0.043375,0.015402,0.012034,0.066734,0.000012,0.004647,0.002482,0.002165,
3.361667,-0.001023,0.141198,0.001170,0.094128,0.024489,-0.022200,0.003710,0.068443,0.016040,0.026862,0.027310,-0.001958,0.009147,0.000635,-0.001482,
3.362500,-0.000109,0.290417,-0.000970,0.027202,0.030375,-0.019165,-0.001556,0.062697,-0.004019,0.028853,0.013425,-0.010670,0.006303,-0.001369,0.001433,
3.363333,0.001111,0.297378,-0.000059,0.076306,-0.001404,-0.019300,0.014588,0.045697,0.019934,0.026095,-0.021901,0.004098,0.015487,0.006541,-0.002212,
3.364167,-0.000718,0.101166,0.001462,0.053498,-0.037414,-0.008895,0.013530,0.054546,0.007352,0.020880,-0.008466,0.011839,0.011674,-0.008441,0.001924,
3.365000,0.002489,-0.038245,-0.002207,-0.009734,-0.031860,0.006851,0.013875,0.028226,0.016850,0.021294,0.010711,0.020954,0.011643,0.000988,-0.001263,
3.365833,-0.001167,-0.096178,0.002059,-0.031836,-0.012348,-0.007622,0.006457,0.013741,-0.000984,0.008110,0.009086,0.014363,0.010968,-0.008508,0.000739,
3.366667,0.002960,-0.145002,-0.002373,-0.003261,0.015642,-0.001959,0.007288,0.002243,0.005147,0.011846,0.014584,0.009927,0.002474,0.006408,0.000604,
3.367500,-0.001762,-0.113958,0.001893,-0.007670,0.042656,0.001266,0.007353,-0.005817,-0.000582,0.006712,0.012552,0.007959,-0.007433,-0.002482,-0.001058,
3.368333,0.001301,-0.079992,-0.001166,-0.077894,0.067478,-0.010294,0.020985,-0.010604,-0.006543,-0.014006,0.009089,0.002516,-0.008528,0.002663,0.000943,
3.369167,-0.000670,-0.055041,0.000658,-0.156863,0.056842,-0.011135,0.035052,-0.006338,-0.004003,-0.011704,-0.001463,-0.002125,-0.010273,0.001704,-0.001940,
3.370000,-0.001113,-0.057597,-0.000111,-0.207321,0.047825,0.024401,0.001633,-0.000367,-0.014597,-0.027580,-0.002332,0.001062,-0.013430,-0.004598,0.001737,
3.370833,0.001191,-0.048011,-0.000879,-0.255002,0.036601,0.019134,-0.031369,-0.004314,-0.024252,-0.049121,-0.006047,0.005518,-0.010215,0.007867,-0.001606,
3.371667,-0.001538,-0.053915,0.002016,-0.257567,-0.004764,0.003919,-0.021387,-0.008901,-0.037057,-0.014832,-0.006828,-0.010266,-0.012373,-0.006981,0.001916,
3.372500,0.002141,-0.062803,-0.002717,-0.079722,-0.013725,0.002746,-0.016949,-0.014770,-0.069158,-0.007256,-0.008511,-0.011957,-0.011202,0.008536,-0.000362,
3.373333,-0.002113,-0.048423,0.002470,0.046870,0.006496,-0.005101,-0.037283,-0.023936,-0.120378,-0.012199,-0.010506,-0.015270,-0.024399,-0.007075,0.000563,
3.374167,0.001720,-0.036706,-0.002870,0.160949,0.012392,0.006203,-0.037682,-0.022848,-0.079767,-0.007527,-0.001999,-0.001740,-0.007248,0.006764,-0.000192,
3.375000,-0.001313,-0.026868,0.002015,0.145171,-0.018181,0.007395,-0.025011,-0.022066,-0.043597,0.007685,-0.000406,-0.000968,0.001500,-0.008082,-0.001103,
3.375833,0.001451,-0.029259,-0.001491,0.066526,-0.032447,0.004159,-0.017271,-0.021158,-0.038109,0.011780,0.006462,-0.010057,-0.004711,-0.000648,0.002257,
3.376667,-0.000667,0.008033,0.001262,0.006504,-0.059112,0.009343,-0.022698,-0.022130,0.021680,-0.007439,0.022402,-0.012222,0.008154,0.002057,-0.002014,
3.377500,-0.001567,0.052693,-0.000104,-0.058384,-0.062485,0.009858,0.010595,-0.015545,0.028788,-0.019747,0.022833,0.000317,0.011262,-0.003627,0.001341,
3.378333,0.001347,0.047691,-0.000399,-0.072902,-0.028238,0.001153,0.032261,-0.022779,0.097932,0.002791,0.013544,0.001007,0.009196,0.007324,-0.003241,
3.379167,-0.002301,0.034566,0.001749,-0.048500,-0.013907,0.006296,0.007670,-0.008444,0.348699,-0.001916,0.002918,-0.002221,0.018287,-0.008577,0.001025,
3.380000,0.002136,0.042347,-0.001595,-0.010989,-0.015837,0.012337,0.027009,0.008071,0.429319,0.011003,-0.035902,0.015653,0.024045,0.007722,-0.000509,
3.380833,-0.001516,0.139728,0.002387,0.042795,-0.023505,0.011514,0.029402,0.016540,0.108100,0.022180,-0.091319,0.014648,0.013500,-0.004356,0.000243,
3.381667,0.002460,0.125017,-0.001718,0.097224,-0.009140,0.013147,0.031489,0.014825,-0.023602,0.015755,-0.080321,0.012456,0.022666,0.006764,0.000993,
3.382500,-0.000890,0.025703,0.002571,0.148704,-0.001428,0.001379,0.026714,0.005372,0.049240,0.027593,-0.068361,0.005258,0.018278,-0.004237,-0.000395,
3.383333,0.000641,-0.007440,-0.001226,0.195747,0.008638,0.023975,0.028356,-0.005865,-0.045316,0.027181,-0.027957,-0.004361,0.014222,-0.001195,0.002184,
3.384167,-0.000577,-0.008886,0.000164,0.188011,0.010078,-0.005883,0.023297,-0.003618,-0.093426,0.018795,0.017404,0.003581,0.009426,0.002919,-0.001801,
3.385000,-0.001033,-0.019368,0.000029,0.123343,0.005492,-0.011140,0.007419,0.010750,-0.127368,0.022119,0.035241,0.006644,-0.000993,-0.005321,0.002301,
3.385833,0.000951,-0.036291,-0.000870,0.071284,0.010453,-0.011177,0.003307,0.002461,-0.131954,0.004041,0.039762,0.009856,-0.007121,0.008263,-0.001990,
3.386667,-0.003323,-0.036008,0.001586,0.029018,0.025428,-0.008899,-0.029169,0.007233,-0.120680,-0.035597,0.033580,0.000544,-0.018877,-0.006682,-0.000177,
3.387500,0.001863,-0.021425,-0.002214,0.013852,0.035774,-0.015911,-0.045298,0.004327,-0.130672,-0.053159,0.031364,0.001738,-0.022684,0.007522,-0.002027,
3.388333,-0.003328,-0.001555,0.001613,0.026137,0.029447,-0.005215,-0.036384,0.005201,-0.097728,-0.059334,0.033132,-0.009762,-0.036244,-0.005584,-0.000672,
3.389167,0.001552,-0.001129,-0.002497,0.014788,0.037582,0.001356,-0.009901,0.009562,-0.097705,-0.064661,0.035848,-0.010924,-0.041704,0.003744,0.001447,
3.390000,-0.000741,0.001047,0.002242,-0.029785,0.049197,-0.001702,-0.006284,0.018035,-0.068956,-0.052672,0.020299,-0.015335,-0.036319,-0.002489,-0.001773,
3.390833,0.001392,-0.006943,-0.002177,-0.026845,0.052244,0.003448,-0.016681,0.014761,-0.046562,0.032924,0.018694,-0.013388,-0.026649,-0.002310,0.001569,
3.391667,0.001846,-0.005737,-0.000037,0.016151,0.025365,-0.013114,-0.020490,-0.002080,-0.022250,0.073247,0.018682,-0.002647,-0.019712,0.003365,-0.001648,
3.392500,-0.000141,-0.005266,0.000269,-0.030776,-0.012666,-0.008222,-0.019082,-0.011117,-0.002379,0.069651,0.023777,0.002084,-0.002231,-0.007438,0.002613,
3.393333,0.002603,-0.010579,-0.001258,-0.091755,-0.032090,-0.010882,-0.025118,-0.006850,0.012197,0.058585,0.017350,0.005989,0.022591,0.007242,-0.000753,
3.394167,-0.001367,-0.018028,0.001638,-0.131791,-0.041600,-0.013480,0.001076,-0.002395,0.027962,0.055135,0.004896,0.006931,0.029883,-0.007678,0.002139,
3.395000,0.003057,-0.046695,-0.002182,-0.165769,-0.040580,-0.012980,0.029900,-0.015450,0.025468,0.000685,-0.016791,0.002469,0.029259,0.007462,0.001523,
3.395833,-0.002285,-0.050506,0.002235,-0.193448,-0.054045,0.000979,0.026719,-0.026480,0.028608,-0.046805,-0.013993,-0.010906,0.046047,-0.004864,-0.000006,
3.396667,0.000765,0.001660,-0.002199,-0.172602,-0.044298,0.006104,0.012132,-0.042353,0.041137,-0.041583,-0.062397,0.000073,0.037827,0.005699,0.000603,
3.397500,-0.002135,0.030912,0.001605,-0.116978,-0.040932,0.000090,0.020776,-0.014699,0.047434,-0.007628,-0.118672,0.001077,0.025499,-0.004187,-0.002907,
3.398333,-0.000305,0.021990,-0.000391,-0.076315,-0.050342,0.009017,0.030981,0.028858,0.070477,0.153000,-0.019251,-0.004685,0.022946,-0.000798,0.001367,
3.399167,-0.000002,0.019146,0.000054,-0.036241,-0.038643,0.014709,0.024432,0.041468,0.060000,0.111302,0.037192,0.003849,0.013835,0.005488,-0.001987,
3.400000,-0.001682,0.005750,0.001261,0.003748,0.001961,0.039432,0.016841,0.065849,0.053161,-0.012195,0.043634,0.001356,-0.001993,-0.006234,0.001525,
3.400833,0.001519,-0.008581,-0.000889,0.041732,0.039594,0.037393,0.002402,0.083832,0.036910,-0.106573,0.038216,-0.000103,-0.006233,0.008287,-0.002744,
3.401667,-0.002910,-0.004463,0.002454,0.033994,0.044816,0.012546,-0.010043,0.044140,0.027483,-0.138881,0.026579,-0.001589,-0.014152,-0.007865,0.001226,
3.402500,0.004104,0.006819,-0.002138,0.029906,0.046022,-0.005521,-0.005853,-0.020893,0.012874,-0.146051,0.021537,-0.002637,-0.017821,0.008633,0.001382,
3.403333,-0.000329,0.015201,0.002273,0.059464,0.035744,-0.009648,-0.003808,-0.043069,-0.001079,-0.069487,-0.032150,-0.003239,-0.017551,-0.003558,0.000316,
3.404167,0.001494,0.009553,-0.001402,0.082472,0.024517,-0.019072,-0.004375,-0.062532,-0.007942,-0.001803,-0.044154,0.007294,-0.019449,0.005150,0.001232,
3.405000,-0.000654,0.011548,0.000722,0.040727,0.014176,-0.016715,-0.004664,-0.080206,-0.015942,-0.032101,-0.043316,-0.001397,-0.025197,-0.008118,-0.002278,
3.405833,-0.000209,0.031724,-0.001121,-0.015952,0.016013,-0.010366,-0.026353,-0.039034,0.001472,0.004737,-0.028267,0.001215,-0.028540,-0.002621,0.001534,
3.406667,0.000234,0.053457,0.000241,-0.009378,0.008816,-0.017121,-0.009635,0.020235,-0.007590,0.035790,-0.025252,0.005216,-0.022000,0.005617,-0.001827,
3.407500,-0.001310,0.021821,0.000383,0.027997,0.004786,-0.012571,0.001841,0.048311,-0.013242,0.027818,0.022794,0.008020,-0.024191,-0.007511,0.001677,
3.408333,0.002790,-0.029300,-0.001763,0.052866,0.005592,-0.006482,-0.006427,0.019097,0.000504,0.020059,0.071160,0.009022,-0.010541,0.006976,-0.000773,
3.409167,-0.002267,-0.062059,0.001891,0.056541,0.001610,-0.001601,-0.016132,0.024298,-0.009115,0.034204,0.045076,-0.000014,0.000340,-0.008601,0.000591,
3.410000,0.002898,-0.089114,-0.001626,0.092719,-0.000615,0.002991,-0.008051,0.031262,0.007594,0.082944,0.025563,-0.001383,0.009374,0.008014,0.000580,
3.410833,-0.002010,-0.068345,0.001877,0.155569,0.000276,0.003789,0.012474,-0.002274,-0.004966,0.096568,0.017042,-0.000574,0.004362,-0.002687,0.000109,
3.411667,0.001627,-0.050255,-0.001639,0.220163,-0.000773,0.011024,0.009432,-0.044565,0.002582,0.065639,-0.000174,0.012334,0.012319,0.003395,0.001011,
3.412500,-0.000993,-0.044606,0.000950,0.188920,-0.012934,0.005329,-0.009392,-0.093620,0.006982,0.052585,-0.001371,0.008046,0.016775,-0.000444,-0.002054,
3.413333,-0.002239,-0.018285,-0.000733,0.057932,-0.007390,-0.018475,-0.021868,-0.127605,0.008624,-0.016885,-0.035382,-0.002602,0.020483,-0.005352,-0.000084,
3.414167,-0.002874,0.035266,-0.000432,-0.006284,-0.017727,-0.017800,-0.014869,-0.055874,0.000269,-0.039148,-0.110606,-0.006486,0.017193,0.004083,-0.005284,
3.415000,-0.003812,0.128558,0.001396,-0.032990,-0.025960,0.006147,0.030838,0.092293,-0.006250,-0.003659,-0.083921,-0.021459,0.015151,-0.004488,-0.000107,
3.415833,0.001356,0.212449,-0.001811,-0.049017,-0.012729,0.059946,0.055142,0.157303,0.011279,-0.070012,-0.024760,-0.016698,0.021227,0.009677,-0.002252,
3.416667,-0.001406,0.134035,0.002001,-0.095078,-0.009023,0.080136,0.018990,0.113230,0.001679,-0.041052,0.044590,-0.008833,0.012687,-0.009725,0.001406,
3.417500,0.003160,0.001030,-0.002121,-0.107822,-0.003872,-0.008334,-0.015048,0.026618,0.000290,-0.006486,0.233377,-0.005343,0.012572,0.005817,0.001099,
3.418333,-0.002187,-0.062528,0.002303,-0.105064,0.000576,-0.025851,-0.018275,-0.031720,-0.027273,-0.023832,0.235196,-0.003635,-0.001089,-0.004272,-0.002101,
3.419167,0.000101,-0.088091,-0.001056,-0.093010,0.000649,0.014333,-0.052324,-0.060704,-0.048859,-0.026396,-0.009620,0.006362,-0.012280,0.000901,0.000959,
3.420000,-0.000045,-0.074459,0.001536,-0.076782,-0.005950,-0.018530,-0.068052,-0.084432,-0.028802,-0.042855,-0.109386,0.003589,-0.007269,0.002263,-0.002078,
3.420833,-0.001710,-0.055834,-0.000602,-0.066057,0.000610,-0.041257,-0.027148,-0.097553,-0.037018,-0.028493,-0.172903,0.003453,-0.012613,-0.003390,0.001910,
3.421667,0.001515,-0.039560,-0.000603,-0.044399,0.004762,-0.116693,0.033473,-0.059015,-0.017075,-0.027246,-0.238171,0.000611,-0.010312,0.009884,-0.001115,
3.422500,-0.000441,-0.018488,0.001531,-0.032269,0.010779,-0.131903,0.180500,0.021724,-0.022391,-0.028427,-0.137651,0.001317,-0.001134,-0.006744,0.003343,
3.423333,0.004171,-0.003473,-0.002438,-0.015614,0.022780,-0.066726,0.035679,0.096603,-0.002469,-0.013568,0.159632,0.010141,-0.005533,0.003490,0.001244,
3.424167,0.003601,0.018132,0.001527,0.013693,0.015745,0.016296,-0.127547,0.125031,-0.007051,0.040068,0.284107,0.013194,-0.001543,-0.008396,0.006017,
3.425000,0.007766,0.018845,-0.002290,0.130036,0.007534,0.059498,-0.056485,0.066264,0.002324,0.055120,0.098907,0.018403,0.001370,0.007649,0.005758,
3.425833,0.001560,0.006889,0.001980,0.164905,-0.009782,0.077998,-0.008700,0.014441,0.016514,0.037532,-0.050204,0.004400,-0.014806,-0.003308,0.001382,
3.426667,0.001154,0.029708,-0.001531,0.100733,-0.013153,0.087975,0.007572,-0.018546,0.005480,0.023919,-0.092724,-0.001969,-0.005370,0.001611,0.002042,
3.427500,-0.000624,0.085310,0.000450,0.018243,-0.011875,0.081955,0.039939,-0.019280,0.030437,0.051499,-0.131339,0.002341,-0.005420,0.003638,-0.002638,
3.428333,-0.001028,0.055126,-0.000163,-0.035993,-0.007004,0.097623,0.035451,-0.004254,0.010236,0.037401,-0.168944,0.005725,-0.005806,-0.005162,0.001376,
3.429167,-0.000368,-0.005454,-0.000928,-0.033232,-0.009209,0.056232,0.027980,0.022093,0.021054,0.009070,-0.034021,0.007564,0.001555,0.004813,-0.003615,
3.430000,-0.004593,-0.028984,0.000902,-0.102947,-0.017710,-0.054286,0.001346,0.028769,0.018219,0.026908,0.127260,0.004951,0.002928,-0.009009,-0.001134,
3.430833,0.001246,-0.036517,-0.001846,-0.148302,0.000464,-0.072209,0.011085,-0.009263,0.019926,0.021002,0.158504,0.003218,0.010059,0.008151,-0.003085,
3.431667,-0.003908,-0.027734,0.002883,-0.185215,0.006115,-0.015111,-0.011781,-0.033727,0.026675,0.003225,0.174619,-0.014426,0.006621,-0.004589,-0.002145,
3.432500,0.000238,-0.027645,-0.002305,-0.220747,-0.004862,0.033973,-0.004245,-0.039143,0.009057,-0.011651,-0.032364,-0.022657,0.012754,0.005716,-0.001213,
3.433333,-0.002949,-0.028294,0.003035,-0.221978,-0.006664,0.042816,0.005456,-0.037725,0.014567,-0.003213,-0.219213,-0.034145,0.004502,-0.016016,-0.003189,
3.434167,-0.000653,-0.025993,-0.000931,-0.215818,0.018423,0.080964,0.010900,-0.039703,0.008916,-0.006279,-0.122705,-0.020818,0.010248,0.001168,0.000318,
3.435000,-0.003097,-0.022391,0.000291,-0.420228,0.013344,0.050119,0.008872,-0.013951,0.000994,-0.013554,0.115413,-0.009075,0.004512,0.002486,-0.003966,
3.435833,-0.004026,-0.033477,0.000140,-0.378148,0.006494,-0.009926,-0.005368,0.010692,-0.008090,-0.029033,0.260925,-0.005633,-0.001413,-0.002600,0.000286,
3.436667,0.000682,-0.044870,-0.000926,-0.061631,0.012683,-0.052510,-0.011691,-0.023296,-0.016464,-0.026951,0.163997,0.006752,0.000717,0.011086,-0.002795,
3.437500,-0.001944,-0.033339,0.002128,0.171175,0.003082,-0.133656,-0.027195,-0.030915,-0.019818,-0.034793,-0.013774,0.007786,-0.011524,-0.005286,0.000524,
3.438333,0.002746,-0.022495,-0.002446,0.018985,-0.005673,-0.146729,-0.015115,-0.068157,-0.033983,-0.024650,-0.086528,0.009067,-0.012496,0.007946,0.000176,
3.439167,-0.000505,-0.002534,0.001524,-0.143130,-0.009913,-0.040782,-0.015588,-0.056426,-0.010554,-0.019421,-0.136960,0.005258,-0.016230,-0.006136,0.002263,
3.440000,0.003409,0.011628,-0.001220,0.264906,-0.004754,0.009005,-0.020226,0.037554,-0.031436,-0.032384,-0.189931,0.013603,-0.009751,0.008926,0.003432,
3.440833,-0.000005,0.038031,0.002139,0.622839,-0.008355,-0.009580,-0.020489,0.088674,-0.033581,-0.030428,-0.158305,0.018848,-0.003731,0.002165,-0.000895,
3.441667,0.001462,0.045730,-0.001063,0.746432,0.000340,-0.010020,-0.006305,0.020043,-0.031152,-0.013699,-0.063124,0.021453,-0.005335,0.001656,0.002102,
3.442500,0.000791,0.062827,0.000159,0.850236,0.001490,0.002200,0.002793,-0.069604,-0.023515,-0.031321,0.017345,0.013182,-0.005550,0.001600,-0.001766,
3.443333,-0.001405,0.094222,0.001228,0.952497,0.001038,0.012289,-0.006621,-0.023091,-0.035676,-0.006835,0.069995,-0.006571,-0.006658,-0.003652,0.001846,
3.444167,0.001131,0.108802,-0.001519,0.821765,0.017134,0.003326,-0.000210,0.061168,-0.015590,0.013085,0.084766,-0.006674,0.004777,0.008636,-0.001863,
3.445000,-0.001822,0.029512,0.000769,0.321598,0.029322,0.017902,0.011958,0.086893,0.030343,0.012894,0.054499,-0.006655,0.001756,-0.009298,0.000996,
3.445833,0.002250,-0.044314,-0.002285,0.096156,0.027365,0.020486,0.013866,0.092839,0.051158,0.029081,0.007585,0.000204,0.007478,0.009225,0.000351,
3.446667,-0.001455,-0.057144,0.002441,0.333496,0.008352,0.017509,0.015590,0.113030,0.062563,0.025503,-0.013092,-0.008370,0.008675,-0.014225,0.000172,
3.447500,0.002781,-0.068963,-0.002294,0.267391,0.005992,0.024254,0.017286,0.038356,0.047150,0.027967,0.046638,-0.004449,0.015117,-0.014951,0.001985,
3.448333,-0.000451,-0.070332,0.000600,-0.346662,0.008217,0.024111,0.014382,-0.062532,0.034954,0.046565,0.065163,0.002664,0.014297,-0.003635,-0.000619,
3.449167,0.001207,-0.053500,-0.001544,-1.118205,0.005705,0.029769,0.013444,-0.069411,0.050512,0.051408,0.042477,0.007177,0.011861,-0.004234,0.002736,
3.450000,0.001195,0.017053,0.000432,-1.206129,-0.016050,0.011950,0.014169,-0.032806,0.075016,0.027251,0.017020,-0.002196,0.010100,0.007362,-0.001224,
3.450833,-0.000334,0.093528,0.000271,-0.851694,-0.010369,0.015077,0.006492,-0.002327,0.093316,0.010426,0.011668,-0.003171,0.001842,0.000177,0.002300,
3.451667,0.002111,0.123240,-0.000806,-0.660428,-0.012202,0.014447,0.012081,-0.064818,0.035169,0.006895,-0.007779,-0.001538,0.013330,0.011750,-0.000729,
3.452500,-0.000777,0.064182,0.002694,-0.535575,-0.027202,0.005036,0.015376,-0.087245,-0.039360,-0.012019,-0.036004,-0.009498,0.002445,-0.005679,0.001283,
3.453333,0.002292,-0.040967,-0.002504,-0.437464,-0.036453,-0.008567,0.002340,-0.043077,-0.065330,0.001910,-0.043431,-0.005985,-0.001670,0.008011,0.000554,
3.454167,-0.002110,-0.086359,0.002064,-0.371026,-0.058877,-0.003620,-0.022142,0.059122,-0.092543,0.006115,-0.038939,-0.009454,-0.010315,-0.005926,-0.000628,
3.455000,0.001122,-0.048537,-0.002217,-0.253194,-0.050070,-0.005142,-0.029381,0.115115,-0.092226,0.013877,0.011622,-0.012115,-0.011896,0.006986,0.000939,
3.455833,-0.000678,0.058566,0.001742,-0.074804,-0.022390,-0.015115,-0.025327,0.055766,-0.065812,-0.008979,0.055424,-0.008162,-0.013594,0.004327,-0.002375,
3.456667,-0.000034,0.078357,-0.000097,0.124109,0.009674,-0.008059,-0.021267,0.006032,-0.115444,-0.032239,0.062224,-0.012998,-0.014956,0.000900,0.000414,
3.457500,-0.000611,0.008053,-0.000103,0.175867,0.033922,-0.006101,-0.012470,-0.015176,-0.122924,-0.031178,0.063424,-0.000981,-0.012939,0.006319,-0.002596,
3.458333,-0.001950,-0.056243,0.000960,0.184604,0.043037,-0.005128,-0.010985,-0.017629,-0.004688,-0.054621,0.045874,0.000278,-0.021280,-0.004287,0.001105,
3.459167,0.001440,-0.062676,-0.001790,0.211618,0.035044,-0.002246,0.004856,-0.034439,0.059156,-0.095545,-0.025243,-0.005403,0.003346,0.011351,-0.001453,
3.460000,-0.002497,-0.071839,0.002481,0.177382,0.040013,0.001773,-0.009039,-0.048971,0.042469,-0.070939,-0.084640,0.002734,-0.004221,-0.034812,0.000715,
3.460833,0.001802,-0.028348,-0.002402,0.195847,0.036895,-0.000862,-0.004297,-0.036803,0.065445,-0.013144,-0.071604,0.021333,-0.005383,0.008443,0.000435,
3.461667,-0.001989,0.008134,0.002330,0.219812,0.008457,-0.001770,0.009166,-0.014860,0.048242,0.016196,-0.044437,0.021554,0.002751,-0.003234,-0.000918,
3.462500,0.000014,-0.019908,-0.001938,0.189980,-0.002571,-0.001725,0.011518,-0.012268,0.042552,0.039059,-0.079283,0.025217,0.012852,0.002943,0.000316,
3.463333,-0.003328,-0.038452,0.001272,0.174262,-0.027767,-0.002720,0.009170,-0.005812,0.147680,0.060789,-0.055142,0.010803,0.015756,0.000730,-0.003950,
3.464167,-0.001792,-0.015888,-0.000552,0.189531,-0.034626,0.007134,0.012192,0.006210,0.127704,0.061549,0.019297,0.005313,0.012067,-0.001784,-0.000135,
3.465000,0.000808,0.013637,-0.000696,0.275167,-0.029094,0.003565,0.024554,-0.007452,0.065769,0.059652,0.038762,0.012706,0.018105,0.008827,-0.002125,
3.465833,-0.001022,-0.003857,0.001450,0.333590,-0.007814,0.003499,0.014820,-0.010604,0.057391,0.039836,0.016546,0.005659,0.006245,-0.006191,0.001677,
3.466667,0.002638,-0.053067,-0.001285,0.467630,0.010448,-0.000550,0.014576,-0.004434,0.011939,0.025290,-0.028102,-0.000581,0.009286,0.009619,-0.000172,
3.467500,-0.001641,-0.033394,0.002390,0.591424,0.000666,0.001022,0.015120,0.004988,0.071188,0.012347,-0.047241,-0.008316,0.008606,-0.005236,0.000263,
3.468333,0.002775,0.029423,-0.002479,0.354733,0.014564,-0.000337,0.012177,0.005642,0.235020,0.016869,-0.006052,-0.004133,0.002519,0.004329,0.000084,
3.469167,-0.000898,0.056851,0.002113,0.036810,0.026046,-0.009213,-0.002192,0.013888,0.351816,0.009091,0.015237,-0.003304,-0.003334,-0.004715,-0.000403,
3.470000,0.001073,0.039781,-0.001382,-0.016949,0.033580,-0.004554,-0.012275,0.024874,0.257160,-0.017100,0.030697,0.003463,0.000808,0.002422,0.001854,
3.470833,-0.000314,0.052263,0.000921,-0.040898,-0.000531,-0.002079,-0.010295,0.028863,0.019506,-0.027533,0.029527,0.002879,-0.010847,0.001325,-0.001078,
3.471667,0.000130,-0.011556,-0.000285,-0.072459,-0.010070,0.003854,-0.013347,0.036562,-0.595560,-0.040529,0.028086,-0.005832,-0.016939,-0.007089,0.002551,
3.472500,0.001185,0.027194,-0.001338,-0.164966,-0.018090,-0.005829,-0.015027,0.029224,-1.296911,-0.078529,0.014958,-0.011849,0.002368,0.006169,-0.001906,
3.473333,-0.001879,0.034267,0.001269,-0.265736,-0.023683,-0.007782,-0.017779,0.025788,-1.182604,-0.067841,0.015195,-0.016557,0.004350,-0.009100,0.002183,
3.474167,0.002840,0.040055,-0.002074,-0.300277,0.000301,-0.012683,-0.026644,0.006429,-0.386126,-0.033802,0.021951,-0.006994,-0.002141,0.008289,-0.000898,
3.475000,-0.000984,0.042288,0.002211,-0.297406,-0.000471,-0.003440,-0.022550,-0.007941,0.182518,-0.022806,0.018154,-0.010176,-0.013590,-0.005445,0.000602,
3.475833,0.002366,-0.006934,-0.002356,-0.286380,0.015801,0.003778,-0.009314,-0.017013,0.333547,0.000237,0.016483,-0.016648,-0.011986,0.005239,0.001953,
3.476667,-0.001453,-0.027344,0.002385,-0.208240,0.031408,0.000583,-0.009520,-0.080299,0.345463,0.011212,0.007026,-0.008559,-0.018988,-0.003301,-0.000356,
3.477500,0.001901,-0.019705,-0.001573,-0.063653,0.043290,-0.003709,0.008722,-0.152797,0.361872,0.022323,0.010387,-0.006052,-0.017649,0.002353,0.002375,
3.478333,-0.000388,-0.020648,0.000724,0.000576,0.038469,-0.006805,0.026185,-0.102223,0.344474,0.035396,0.005507,-0.006836,-0.010399,0.002515,-0.001758,
3.479167,-0.000539,-0.057803,-0.000643,-0.039470,0.001530,0.003053,0.012964,0.081321,0.344356,0.045237,0.006113,0.001755,-0.013246,-0.005715,0.001895,
3.480000,0.000838,-0.059627,-0.001095,-0.143723,-0.036403,-0.002205,0.020174,0.151533,0.314609,0.034905,0.003345,0.001570,-0.001153,0.007570,-0.001621,
3.480833,-0.001599,-0.022178,0.001656,-0.138541,-0.077770,0.011608,0.016842,0.113268,0.256196,0.039030,0.010619,0.005127,0.009262,-0.009817,0.001122,
3.481667,0.002222,0.005229,-0.001850,-0.048281,-0.083662,-0.001431,0.024025,0.014708,0.222070,0.037466,0.010523,0.022656,0.015420,0.009873,-0.001168,
3.482500,-0.002655,0.061011,0.001967,-0.036094,-0.034691,0.027348,0.035925,-0.061483,0.160159,0.016777,0.007162,0.022887,0.015961,-0.004315,0.000053,
3.483333,0.002997,0.085165,-0.001999,-0.056336,0.018490,0.037374,0.011801,-0.017997,0.113410,0.016933,0.016541,0.027495,0.031347,0.005450,0.001276,
3.484167,-0.000506,0.073986,0.002732,-0.086197,0.023554,0.022698,-0.014012,0.098122,0.057132,0.004359,0.026739,0.008720,0.023594,-0.003253,-0.000706,
3.485000,0.001941,0.005918,-0.001541,-0.106329,0.039414,0.006977,-0.010082,0.092125,0.017715,-0.001575,0.022026,-0.012982,0.002784,-0.000211,0.002959,
3.485833,0.001029,-0.035618,0.001205,-0.117175,0.034957,-0.024436,-0.007839,0.049258,-0.015716,-0.022082,-0.043390,-0.015781,0.006771,0.003283,-0.001158,
3.486667,-0.003088,0.013117,0.000288,-0.048650,0.010201,-0.030493,-0.042681,-0.001229,-0.058790,0.001425,-0.088191,-0.015993,-0.002587,-0.002536,0.000370,
3.487500,-0.001560,0.036417,-0.001088,0.042863,-0.006301,-0.020347,-0.024122,-0.055722,-0.083056,-0.002771,-0.075000,-0.019103,-0.004224,0.009644,-0.004969,
3.488333,-0.005680,0.011812,0.002267,0.092150,-0.012394,-0.011546,-0.029366,-0.036138,-0.119737,-0.045199,-0.065163,-0.019302,-0.004239,-0.005494,-0.003443,
3.489167,-0.000646,-0.001379,-0.001856,0.129222,-0.013704,-0.006530,-0.015076,-0.032849,-0.128645,-0.073213,-0.044187,0.005544,-0.002477,-0.012091,-0.002985,
3.490000,-0.001869,-0.017683,0.002413,0.140757,-0.022725,-0.000266,-0.009017,-0.046953,-0.143745,-0.052778,-0.035568,0.009818,-0.014501,-0.006332,0.000524,
3.490833,0.002095,-0.067035,-0.002779,0.146077,-0.024178,-0.003891,-0.002030,-0.042464,-0.121630,-0.016388,-0.008630,0.013823,-0.013608,0.004459,0.001286,
3.491667,0.000412,-0.072247,0.001032,0.150913,-0.037884,-0.003980,0.012910,-0.027486,-0.122937,-0.015758,0.015116,0.011004,-0.007277,-0.001842,-0.000547,
3.492500,0.002086,-0.046300,-0.001566,0.142662,-0.028580,0.009537,0.005138,-0.031476,-0.119016,0.000853,0.025457,0.011130,-0.005429,-0.000360,0.002809,
3.493333,0.001472,-0.044134,-0.000044,0.131583,-0.004800,0.006292,0.008074,-0.033678,-0.098886,-0.001633,0.024536,0.015122,-0.006086,0.004327,0.000673,
3.494167,0.001163,-0.044535,0.000867,0.117072,0.008900,0.011156,0.011956,-0.023857,-0.083276,-0.004126,0.029146,0.010165,-0.002540,-0.003800,0.002505,
3.495000,0.001313,-0.006452,-0.001273,0.097117,0.039988,0.007645,0.006104,-0.038767,-0.064191,-0.009353,0.027697,-0.003128,0.007184,0.007304,-0.001918,
3.495833,-0.002961,-0.001125,0.001622,0.066313,0.054438,0.005522,-0.001087,-0.043589,-0.057708,0.005591,0.023243,-0.011635,-0.001336,-0.008136,0.000680,
3.496667,0.001770,-0.011749,-0.002349,0.045007,0.039886,0.003715,0.001824,-0.064989,-0.024326,0.031721,0.024637,-0.004065,0.009578,0.007254,-0.000686,
3.497500,-0.002805,0.001529,0.002530,0.018264,0.029739,-0.003274,0.013768,-0.073017,-0.011181,0.018393,0.024399,-0.006512,0.012906,-0.005880,-0.000983,
3.498333,0.001778,0.014174,-0.002356,0.006056,0.037104,0.001794,0.027568,-0.045959,0.007564,0.032757,0.027403,-0.000056,0.012909,0.005104,0.001623,
3.499167,-0.000961,0.031104,0.002371,-0.000054,0.028088,-0.003670,0.023381,0.045531,0.004067,0.072383,0.022654,-0.014457,0.017050,-0.000532,-0.000956,
3.500000,0.000880,0.033127,-0.001141,-0.010974,0.022504,0.006117,0.037058,0.128111,0.005903,0.040231,0.010898,-0.005924,0.010056,-0.000206,0.001960,
3.500833,0.000434,0.027607,0.000536,-0.011998,0.011476,-0.003792,0.043567,0.168566,0.029227,-0.006323,-0.004069,0.001886,0.003204,0.005931,-0.001987,
3.501667,-0.000467,0.027245,0.000839,-0.019872,0.005807,0.020614,0.020924,0.126663,0.009952,-0.009602,0.009163,-0.003085,0.009146,-0.004400,0.003375,
3.502500,0.002601,0.026888,-0.000687,0.038215,0.003637,0.001971,0.000857,0.044866,0.036751,-0.013558,0.018221,0.000368,0.005741,0.007864,0.000195,
3.503333,-0.001807,0.022147,0.001448,0.107046,-0.002086,-0.021122,-0.047007,0.010803,0.019929,-0.022164,0.073583,-0.004547,-0.015110,-0.007938,0.001440,
3.504167,0.003094,0.007253,-0.001603,0.058770,-0.010628,0.002144,-0.059965,-0.013789,0.040241,0.004240,0.114186,-0.001050,-0.014663,0.009076,-0.000365,
3.505000,-0.001770,0.010770,0.001297,-0.046169,-0.032548,-0.015359,-0.049012,-0.029031,0.045387,0.027188,0.049821,0.001697,-0.021767,-0.005640,-0.000034,
3.505833,0.001910,0.012884,-0.002364,-0.142283,-0.034910,0.002965,-0.021784,-0.038255,0.021517,-0.005675,-0.050263,0.011624,-0.022853,0.004217,0.001212,
3.506667,-0.000973,0.009956,0.001300,-0.219611,-0.033911,0.000813,-0.013075,-0.037168,0.035189,-0.028602,-0.201198,0.013159,-0.011366,-0.001638,-0.001664,
3.507500,0.000873,0.002001,-0.000987,-0.248952,-0.037656,-0.007168,-0.021517,-0.027584,0.022335,0.000197,-0.235159,0.014384,-0.009895,-0.001235,0.002172,
3.508333,0.001343,0.007955,0.000084,-0.213143,-0.031658,-0.006936,-0.019644,-0.014378,0.021412,0.011885,-0.167116,0.006748,-0.000286,0.008171,-0.002082,
3.509167,-0.001395,0.011499,0.000240,-0.178310,-0.021572,-0.023666,-0.010508,-0.022112,0.016084,0.018191,-0.036908,-0.002278,0.003878,-0.005161,0.001443,
3.510000,0.001967,0.018897,-0.000978,-0.135182,-0.018535,-0.017377,0.007420,-0.043002,0.032719,-0.004860,0.083130,0.003474,0.007938,0.009731,-0.001598,
3.510833,-0.002457,0.011230,0.002382,-0.107426,-0.004992,0.046574,0.041619,-0.017392,0.033120,0.019313,0.140050,-0.004840,-0.005498,-0.006358,0.000087,
3.511667,0.001506,-0.023096,-0.002192,-0.045751,-0.000617,-0.003623,0.003898,0.028770,0.046665,-0.000705,0.221440,-0.000367,0.003398,0.006841,-0.000979,
3.512500,-0.003386,-0.073253,0.002084,0.018583,-0.002494,-0.049098,-0.009148,0.061292,0.054185,-0.042192,0.136726,-0.002338,0.004724,-0.024983,-0.002661,
3.513333,-0.000196,-0.096975,-0.001423,0.108345,-0.004344,0.022920,0.025679,0.045977,0.035728,-0.054498,0.037595,-0.005872,0.005505,0.001011,-0.000227,
3.514167,-0.002199,-0.072908,0.001937,0.181924,-0.023387,0.054659,0.042468,-0.025129,0.031742,-0.069827,0.001429,-0.012649,0.011243,0.002579,-0.002222,
3.515000,-0.001460,-0.058281,-0.000654,0.183220,-0.026483,-0.001485,0.035275,-0.087047,0.027110,-0.006850,-0.057653,-0.025415,0.011418,-0.000902,0.001424,
3.515833,-0.000115,-0.049292,-0.000195,0.163408,-0.014671,-0.013669,0.035997,-0.078157,0.010512,0.046847,-0.066378,-0.011821,0.016263,0.008268,-0.002715,
3.516667,-0.002282,-0.046258,0.000570,0.149247,0.009179,-0.022478,0.029991,0.001055,0.003567,0.085472,-0.054616,-0.007418,0.010529,-0.018434,0.001078,
3.517500,0.002108,-0.061862,-0.001260,0.128740,0.029685,-0.011734,0.025658,0.085403,-0.000504,0.098200,0.055804,-0.001521,0.008113,0.009171,-0.000624,
3.518333,-0.001895,0.060127,0.001486,0.066844,0.032988,0.021161,-0.001257,0.104206,0.024159,0.063834,0.043373,0.000533,-0.007301,-0.004436,0.000419,
3.519167,0.002799,0.343948,-0.002177,0.041733,0.038033,0.028905,-0.036556,0.050566,-0.025835,-0.010284,-0.081171,0.006989,-0.003350,0.011242,0.000548,
3.520000,-0.001510,0.340964,0.002247,0.034377,0.033245,0.023860,-0.056733,0.012490,-0.050183,-0.089648,-0.128711,0.009153,-0.008863,-0.003913,-0.000849,
3.520833,0.001506,0.111421,-0.002028,0.020704,0.036647,0.018081,-0.054148,-0.005781,-0.071117,-0.112589,-0.187988,0.007489,-0.013755,0.001063,0.001724,
3.521667,-0.000815,-0.043505,0.001173,-0.016798,0.037722,-0.021239,-0.025893,-0.013436,-0.053956,-0.141182,-0.145104,-0.000439,-0.007637,0.002216,-0.001347,
3.522500,-0.000082,-0.113316,-0.000205,-0.052927,0.032054,-0.037185,-0.039095,-0.009743,-0.033293,-0.072250,-0.012962,0.005668,-0.015521,-0.004116,0.003369,
3.523333,0.001877,-0.098807,-0.001278,-0.056070,0.025291,-0.021978,-0.057123,-0.020824,-0.028160,-0.011351,-0.013357,0.008572,-0.019846,0.006638,-0.001067,
3.524167,-0.000737,-0.068824,0.001158,-0.056266,0.010566,-0.007357,-0.017403,-0.023969,-0.014551,0.009045,-0.031633,0.009956,-0.018157,-0.003823,0.002589,
3.525000,0.003215,-0.065202,-0.002205,-0.050139,0.001453,-0.004923,0.017057,-0.018435,-0.020797,0.033983,-0.049883,0.006771,-0.009070,0.007992,-0.000616,
3.525833,-0.000913,-0.050118,0.001908,-0.048655,-0.010754,-0.004149,0.006899,-0.010343,-0.032494,0.043197,-0.081030,0.005735,-0.005391,-0.006592,0.000914,
3.526667,0.002594,-0.048614,-0.001914,-0.052102,-0.014316,0.021052,0.022476,-0.012675,-0.002426,0.044954,0.049519,0.009443,0.010132,0.006748,0.001229,
3.527500,-0.000453,-0.040708,0.002352,-0.061987,-0.027864,0.009489,0.027633,-0.023760,-0.004675,0.049345,0.243975,-0.003617,0.014009,-0.003562,-0.001045,
3.528333,0.001084,-0.052036,-0.001165,-0.064102,-0.015249,0.003730,0.026798,-0.025746,0.004792,0.053184,0.234241,-0.009490,0.007162,0.000474,0.002484,
3.529167,0.000185,-0.046276,0.000965,-0.044698,-0.014327,-0.001266,0.031265,-0.046248,0.010047,0.034202,0.147866,-0.007413,0.012788,-0.003115,-0.000850,
3.530000,-0.000097,-0.041879,-0.000110,-0.039008,-0.036558,0.021198,0.030199,-0.063284,0.006161,0.048708,0.179668,0.000174,0.015781,-0.004411,0.002687,
3.530833,0.001304,-0.033333,-0.000573,-0.046258,-0.033279,0.006116,0.039158,-0.075317,0.018276,0.030018,0.138402,0.002587,0.014463,0.007116,-0.002014,
3.531667,-0.002631,-0.030991,0.001253,-0.071169,-0.013049,-0.005930,0.026548,-0.038841,0.022102,-0.014861,-0.000572,-0.004141,0.017832,-0.006986,0.000916,
3.532500,0.000915,-0.027197,-0.002261,-0.094974,-0.008226,0.004433,0.024859,0.052723,0.009386,-0.001564,-0.072698,-0.001397,0.014131,0.009285,-0.002714,
3.533333,-0.003472,-0.031383,0.002313,-0.141026,-0.008442,-0.006440,0.012559,0.073970,-0.005842,0.003509,0.040026,-0.009018,0.008388,-0.005870,-0.001613,
3.534167,0.001146,-0.047945,-0.002419,-0.121453,0.005827,0.001882,0.005807,0.053302,0.015789,0.012382,0.084041,-0.001524,0.008830,0.005685,-0.000514,
3.535000,-0.002474,-0.034285,0.002310,-0.031097,-0.004484,-0.004022,0.001987,0.066426,0.005626,0.035399,0.045803,0.004451,-0.001037,-0.010218,-0.002621,
3.535833,0.000771,0.037392,-0.000895,0.043021,-0.013134,-0.006302,-0.028523,0.069875,-0.004268,0.038190,-0.033152,0.001735,-0.000322,0.002575,0.001983,
3.536667,0.000811,0.151844,0.001242,0.087714,-0.018137,-0.003437,-0.018759,0.060467,-0.007762,0.023308,-0.093889,0.005433,-0.004912,0.004999,-0.001198,
3.537500,0.000392,0.097597,-0.000281,0.139831,-0.000420,0.000912,-0.021537,0.051340,-0.013977,-0.006997,-0.101884,0.008829,-0.015892,-0.004470,0.002331,
3.538333,0.002564,0.078052,-0.000278,0.326684,0.011182,-0.004703,-0.012312,0.009707,-0.005936,-0.044680,-0.086075,0.000022,-0.002915,0.009110,-0.001164,
3.539167,-0.001372,0.164922,0.001709,0.447048,0.022013,0.000778,-0.021010,-0.025812,-0.020521,-0.046595,-0.086685,-0.008783,-0.008875,-0.004463,0.002813,
3.540000,0.002013,0.238413,-0.002253,0.405275,0.027957,-0.017130,-0.029488,-0.053069,-0.004274,-0.041618,-0.116909,-0.016212,-0.003425,0.010353,-0.000845,
3.540833,-0.003152,0.170024,0.001415,0.305592,0.007503,-0.020124,-0.032575,-0.050231,-0.012840,-0.072809,-0.162457,-0.022722,0.000449,-0.013275,-0.000694,
3.541667,0.001291,0.008557,-0.001936,0.307765,0.007499,0.002938,-0.025244,-0.031781,0.006480,-0.064359,-0.114876,-0.000694,-0.005506,0.002776,0.000215,
3.542500,-0.001901,-0.073442,0.001581,0.246695,0.007654,0.001554,-0.011777,-0.003356,0.002626,-0.029564,-0.032926,0.005315,-0.005281,-0.004817,-0.002087,
3.543333,-0.000674,-0.120714,-0.001769,-0.078107,0.015294,0.023947,-0.000724,0.012166,0.002204,-0.008264,-0.004339,0.012703,-0.006058,-0.003707,0.001558,
3.544167,0.000547,-0.101861,0.000376,-0.348779,0.001581,0.009547,0.009592,-0.003361,0.089194,-0.004130,-0.006811,0.013994,-0.006014,0.002445,-0.002279,
3.545000,-0.000831,-0.071389,-0.000227,-0.418797,-0.008307,0.014664,0.010016,-0.020175,0.093664,0.015031,0.003799,0.008730,-0.012172,-0.005589,0.002577,
3.545833,0.002516,-0.073115,-0.000982,-0.413516,-0.001404,0.005126,0.018557,-0.030635,-0.005236,0.013058,0.012598,0.003016,-0.002412,0.006981,-0.000962,
3.546667,-0.001924,-0.085090,0.001926,-0.456889,-0.000599,-0.005935,0.001957,-0.026494,-0.074558,0.013916,0.019662,-0.002385,-0.005724,-0.007606,0.001293,
3.547500,0.002024,-0.096490,-0.001881,-0.381235,0.004784,-0.015309,0.006152,-0.019643,-0.093655,0.023569,0.025075,0.002598,-0.005169,0.008939,-0.000726,
3.548333,-0.002271,-0.064288,0.002705,-0.264040,0.004975,-0.010932,0.017724,-0.016943,-0.098200,0.012431,0.024049,0.007437,0.002309,-0.004573,-0.000610,
3.549167,0.000754,-0.007552,-0.001712,-0.132397,0.008817,-0.013092,0.020662,-0.033186,-0.110740,0.011955,0.028587,-0.000686,0.007257,0.006941,-0.000342,
3.550000,-0.001410,-0.004389,0.001347,0.038525,-0.004600,-0.017354,0.019555,-0.076151,-0.093869,0.031625,0.019412,-0.014447,0.004344,0.000145,-0.001447,
3.550833,-0.000677,-0.059505,-0.000782,0.118107,-0.004767,0.007873,0.021130,-0.063742,-0.120811,0.017755,0.025464,-0.018437,0.004108,-0.000548,0.001417,
3.551667,-0.000707,-0.084667,0.000751,0.160549,-0.000999,0.006902,0.007546,0.010905,0.070283,0.004398,0.021817,-0.024863,-0.002594,0.005167,-0.003956,
3.552500,-0.002415,-0.118288,0.000910,0.226183,-0.018482,0.010715,-0.009434,0.107504,0.410596,-0.005215,0.030689,-0.016791,-0.011019,-0.004685,0.001050,
3.553333,0.000608,-0.106300,-0.001373,0.207218,-0.020451,-0.004336,-0.012707,0.134951,0.261994,-0.007851,0.045908,0.004404,-0.002842,0.010484,-0.002485,
3.554167,-0.002165,0.052051,0.001685,0.082852,-0.012252,0.003868,-0.029877,0.101932,0.021800,-0.009130,0.053051,0.003776,-0.005363,-0.004717,0.001462,
3.555000,0.003763,0.187907,-0.002582,-0.023049,0.002291,0.012289,-0.009661,0.098303,0.072063,0.000283,0.061337,0.022215,0.005235,0.009983,0.001600,
3.555833,-0.000530,0.189774,0.001390,-0.081527,0.012339,0.003686,-0.013843,0.077352,0.060270,-0.022922,0.053268,0.020195,0.001959,-0.005230,0.001285,
3.556667,0.003116,0.107751,-0.001963,-0.154871,0.030093,0.008879,-0.016319,0.014642,-0.042612,-0.005022,0.034067,0.025484,0.004962,0.004115,0.002502,
3.557500,0.000967,0.067308,0.000330,-0.260369,0.029607,0.006202,0.005813,-0.026989,-0.075497,-0.008250,0.018864,0.022053,0.000980,-0.000739,-0.000242,
3.558333,0.002333,0.035369,-0.000735,-0.213300,0.014542,0.001142,-0.005418,-0.050621,-0.094282,0.007239,0.014231,0.017983,0.000551,-0.030016,0.003886,
3.559167,0.002481,-0.005432,0.000031,-0.082718,-0.020142,-0.011644,0.003251,-0.061623,-0.088335,0.013842,0.001397,0.022882,-0.000588,0.005243,-0.000678,
3.560000,-0.000419,-0.044241,0.000492,-0.040403,-0.025157,0.000338,0.008180,-0.054834,-0.076167,0.002724,-0.009888,0.004394,0.001994,-0.006350,0.002393,
3.560833,0.002331,-0.047328,-0.000726,0.033268,-0.018661,0.003053,0.007699,-0.050879,-0.068199,0.010974,-0.000726,-0.012461,0.013183,0.009056,-0.001094,
3.561667,-0.001478,-0.050854,0.002481,0.122530,0.006063,0.002597,0.008682,-0.039557,-0.031053,-0.003971,0.000622,-0.020212,0.004906,-0.006674,0.000916,
3.562500,0.001582,-0.049793,-0.002094,0.228808,0.030406,0.007202,0.007166,-0.033399,-0.032970,0.003363,-0.016262,-0.016574,0.009206,0.008718,-0.000734,
3.563333,-0.002223,-0.029364,0.002639,0.343553,0.010887,0.001750,-0.004475,-0.027078,-0.003480,0.006124,-0.035095,-0.015891,0.014941,-0.004276,-0.001925,
3.564167,-0.000687,-0.029572,-0.002088,0.278871,-0.007776,-0.011632,-0.009453,-0.024723,-0.007452,0.029943,-0.040516,-0.017708,0.011731,0.003629,0.000242,
3.565000,-0.002966,0.028130,0.001118,0.028994,-0.007869,0.004125,0.014508,-0.017029,-0.009342,0.034076,-0.043256,-0.018970,0.016050,0.002835,-0.003238,
3.565833,-0.001736,0.179404,0.000053,-0.040349,-0.016082,0.008880,0.020715,-0.002927,0.013888,0.018820,-0.030397,-0.013876,0.022704,-0.000098,0.001368,
3.566667,-0.000202,0.184790,0.000360,0.089683,-0.024922,0.000793,0.015571,0.002331,0.002582,-0.003168,-0.031745,-0.017985,0.014898,0.006735,-0.003642,
3.567500,-0.003400,0.059339,0.001277,0.298107,-0.017737,-0.003056,0.009600,0.012795,0.005124,0.000601,-0.022477,-0.015572,0.000864,-0.006267,0.001111,
3.568333,0.001945,-0.005204,-0.001468,0.503419,-0.010989,0.003735,0.005084,0.011540,0.002154,0.010585,-0.008741,0.004206,-0.003385,0.005756,-0.000855,
3.569167,-0.000801,-0.012560,0.002195,0.509791,-0.018085,-0.000357,0.004454,0.003927,-0.000045,-0.012292,-0.001108,0.000771,-0.015253,-0.006479,0.001448,
3.570000,0.004385,0.012493,-0.002230,0.294403,-0.016267,-0.008013,0.000377,-0.002549,0.001304,-0.019368,0.004199,0.000380,-0.025438,0.007230,0.001457,
3.570833,-0.000197,-0.011888,0.002500,0.192240,-0.005820,-0.007793,-0.007461,0.007394,-0.010397,-0.034001,0.005012,0.005030,-0.027540,-0.004083,-0.000218,
3.571667,0.000711,-0.110473,-0.002385,0.184591,0.007631,-0.005193,-0.019684,0.010280,0.011886,-0.024619,0.022973,0.010310,-0.025377,0.001699,0.001611,
3.572500,-0.001740,-0.160016,0.000207,0.021127,-0.004124,-0.006775,-0.012496,0.018948,-0.008560,-0.020834,0.014112,0.012722,-0.028107,0.000314,-0.002362,
3.573333,-0.000226,-0.158110,-0.001932,-0.483909,-0.005667,-0.002467,-0.023904,0.025638,-0.001353,-0.022962,0.008779,0.026318,-0.025203,-0.004882,0.002204,
3.574167,0.000829,-0.112715,-0.001327,-1.031009,0.004695,-0.017748,-0.011346,0.016943,-0.000637,-0.032081,0.036564,0.024102,-0.018038,0.003353,-0.001779,
3.575000,-0.001322,-0.027816,0.001567,-1.070506,0.017665,-0.008212,-0.006874,0.014549,0.008121,-0.043622,0.039324,0.019209,-0.016222,-0.004735,0.000795,
3.575833,0.000952,0.040888,-0.000881,-0.670073,0.024095,-0.001471,-0.010192,0.008708,0.012289,-0.047216,-0.037113,0.013020,-0.004339,0.011442,-0.001821,
3.576667,-0.002725,0.041675,0.002927,-0.228711,0.028414,0.001719,-0.004066,0.018658,0.016014,-0.012050,-0.123929,-0.012002,0.003575,-0.003356,-0.001541,
3.577500,0.000924,0.014384,-0.002728,0.063070,0.037333,0.002738,-0.000405,0.008095,0.034578,0.029674,-0.164051,-0.013889,0.008901,0.009162,-0.000346,
3.578333,-0.002443,0.021448,0.002299,0.211369,0.026586,-0.008475,-0.003641,-0.000849,0.016730,0.032323,-0.150761,-0.018119,0.011797,-0.001361,-0.001744,
3.579167,0.000601,0.017885,-0.001526,0.266144,0.020880,-0.010398,0.009261,-0.000232,0.022601,0.036629,-0.060705,-0.020414,0.023557,-0.007765,0.000673,
3.580000,-0.001081,0.008767,0.000905,0.099806,0.005400,0.007965,0.006861,0.002165,0.019237,0.032050,0.077744,-0.021691,0.026029,0.000936,-0.003164,
3.580833,-0.002149,0.006648,-0.000784,-0.029736,0.011712,0.027701,0.010518,0.006495,0.027694,0.024679,0.222477,-0.017370,0.021962,-0.003793,0.000632,
3.581667,-0.000617,-0.007805,-0.000185,-0.036493,0.005004,0.014486,0.013817,-0.012117,0.027672,0.045780,0.318722,-0.007150,0.026462,0.007345,-0.002892,
3.582500,-0.002588,-0.021726,0.001025,-0.081926,-0.003460,0.008305,0.023773,-0.016136,0.006340,0.046203,0.164758,0.004845,0.013895,-0.009902,0.000761,
3.583333,0.001397,0.015590,-0.000970,-0.065777,-0.002110,-0.006553,0.011390,-0.018082,0.002589,0.017538,0.043333,0.009454,0.010045,-0.006553,-0.001073,
3.584167,-0.000716,0.041323,0.002528,-0.012581,-0.017220,-0.004144,-0.012808,-0.008959,0.003123,-0.000106,-0.032433,0.011550,0.012313,-0.005191,0.002440,
3.585000,0.006333,0.018134,-0.002670,0.035899,-0.021203,-0.000640,-0.002894,0.002986,0.000894,0.015225,-0.050492,0.032332,0.007114,0.007917,0.003976,
3.585833,0.005147,0.009691,0.002049,0.100922,-0.024007,0.006251,0.009999,-0.004533,-0.017248,0.035435,-0.063339,0.038370,0.003289,0.000269,0.005518,
3.586667,0.008391,-0.009149,-0.001470,0.159184,-0.018488,0.015002,0.029532,-0.023133,-0.017765,0.087361,-0.094325,0.024004,0.004493,0.001163,0.008287,
3.587500,0.003704,0.040531,0.001419,0.212390,-0.012456,-0.005364,0.029153,-0.017881,-0.016252,0.067685,-0.093715,0.003713,-0.004086,0.004192,0.000685,
3.588333,-0.000828,0.070863,-0.000574,0.243148,-0.000290,-0.016857,-0.008533,0.022658,-0.027544,0.026292,-0.084856,-0.013519,-0.016506,-0.004835,0.001328,
3.589167,-0.000628,0.053786,-0.000887,0.225946,-0.000171,-0.014141,-0.013793,0.031184,-0.022526,-0.009971,-0.090794,-0.005127,-0.014618,0.006431,-0.003213,
3.590000,-0.003481,0.026999,0.001241,0.156599,-0.012879,-0.004546,-0.023399,0.002501,-0.030982,-0.053310,0.010847,-0.008666,-0.021167,-0.008396,-0.000123,
3.590833,-0.000690,0.001336,-0.001818,0.112974,-0.009897,-0.008223,-0.034753,-0.015795,-0.003501,-0.115622,0.066873,-0.005847,-0.022734,0.007907,-0.002677,
3.591667,-0.005684,-0.002304,0.002447,0.097205,-0.011835,0.003050,-0.064174,0.014132,-0.009992,-0.223291,0.047230,-0.007368,-0.019783,-0.005544,-0.002333,
3.592500,-0.000460,-0.013226,-0.001984,0.093689,-0.008936,0.016446,-0.020564,0.007129,-0.025146,-0.131850,0.024255,-0.001041,-0.012013,0.006490,-0.001838,
3.593333,-0.002872,-0.041978,0.001520,0.067240,-0.004560,0.014559,0.025900,-0.013313,-0.016479,-0.113027,-0.046289,-0.008397,-0.006143,-0.000242,-0.002872,
3.594167,-0.000866,-0.071793,-0.001385,0.006741,-0.006184,0.019047,0.048675,-0.008748,-0.000943,-0.060127,-0.031939,-0.004883,-0.002631,-0.001018,0.001430,
3.595000,-0.000699,-0.051886,0.000594,-0.004666,-0.005565,0.018456,0.021986,-0.003904,0.019011,-0.011103,0.048404,-0.001955,0.007830,0.002939,-0.002666,
3.595833,-0.000542,-0.021650,0.000438,-0.005947,0.023855,0.080525,-0.001053,-0.028388,0.017131,0.008765,0.094054,0.008006,0.007695,-0.008968,0.001930,
3.596667,-0.000546,0.012170,-0.001397,-0.038847,0.048212,0.079056,0.001848,-0.099450,0.034459,0.074903,0.059718,0.013855,0.019550,0.007359,-0.002942,
3.597500,-0.003459,0.032914,0.001041,-0.070520,0.037308,0.020911,-0.062071,-0.098230,0.001111,0.077041,0.036822,-0.009130,0.015324,-0.007436,0.000113,
3.598333,0.001859,0.037346,-0.001708,-0.071806,0.030375,-0.019606,-0.090104,-0.025345,0.011846,0.079162,-0.055475,-0.015632,0.013487,0.008290,-0.001265,
3.599167,-0.002140,0.039779,0.002104,-0.069563,0.011258,-0.073623,-0.025630,0.137356,-0.000317,0.093822,-0.222636,-0.025483,0.002603,-0.004206,-0.001734,
3.600000,0.002093,0.037285,-0.002018,-0.067768,-0.000948,-0.100547,0.023789,0.172427,-0.001952,0.091003,-0.148621,-0.032420,0.000230,0.005427,0.000841,
3.600833,-0.000091,0.035179,0.001642,-0.052099,-0.008354,-0.114564,0.027645,0.086420,0.009848,0.070127,0.031561,-0.014005,-0.004153,-0.000957,-0.000711,
3.601667,0.002145,0.014973,-0.000496,-0.103294,-0.014901,-0.099185,0.040115,0.081050,0.004122,0.041596,0.040078,0.000938,-0.009769,-0.000165,0.003529,
3.602500,0.001781,0.000453,0.000723,-0.413329,-0.038413,-0.051800,0.069139,0.037592,0.011400,0.017938,0.022222,0.009677,-0.008520,0.004751,-0.001391,
3.603333,-0.000875,-0.012213,0.000569,-0.563369,-0.053531,0.014332,0.115940,-0.020463,-0.025217,0.003435,0.030204,0.019247,-0.012907,-0.018559,0.002229,
3.604167,0.001502,-0.055230,-0.001569,-0.334917,-0.060986,0.025684,0.121315,-0.051771,-0.015075,-0.007104,0.031088,0.018073,-0.011625,0.008029,-0.001478,
3.605000,-0.002530,-0.095033,0.002092,-0.060009,-0.082262,0.053233,0.021024,-0.061221,-0.013090,-0.042221,0.022602,0.002817,-0.008017,-0.007801,0.001374,
3.605833,0.001830,-0.047543,-0.002181,0.154700,-0.052172,0.053208,-0.036013,-0.073689,-0.034958,-0.042426,0.082883,0.003103,-0.001157,0.010550,0.000257,
3.606667,-0.001896,-0.004460,0.002701,0.370408,0.004900,0.036314,-0.055446,-0.077121,0.007076,-0.033835,0.119316,-0.004698,-0.008122,-0.004059,-0.000859,
3.607500,0.002011,-0.015664,-0.001878,0.606358,0.047934,0.032785,-0.081686,-0.071971,-0.000494,-0.028994,0.017766,0.001409,-0.000521,0.004983,0.000925,
3.608333,-0.000334,-0.012776,0.001021,0.624079,0.054374,0.046458,-0.111534,-0.039617,0.011928,-0.004899,-0.051028,0.003592,-0.002146,-0.000474,-0.001561,
3.609167,0.000836,-0.021713,-0.001726,0.553305,0.057352,0.061633,-0.103190,0.014611,0.006367,0.011706,-0.009108,0.004008,-0.004751,-0.000594,0.002822,
3.610000,0.000333,-0.054959,0.000562,0.413911,0.059326,0.047505,-0.033772,0.053954,0.002825,0.020316,0.017624,0.002066,0.010286,0.005691,-0.001794,
3.610833,-0.001078,-0.059077,0.000104,0.269278,0.055728,0.014612,-0.013303,0.024260,0.000708,0.039042,-0.034639,-0.002370,0.013825,-0.005120,0.002141,
3.611667,0.002859,-0.019995,-0.002337,-0.007635,0.035120,-0.092273,0.020771,-0.026231,0.004147,0.014885,-0.067966,-0.013252,0.013649,0.009546,-0.000328,
3.612500,-0.001284,0.034393,0.001479,-0.664391,0.010013,-0.146345,0.039299,-0.019829,0.023071,-0.017259,-0.029440,-0.013629,0.011131,-0.010434,0.002092,
3.613333,0.001295,0.047662,-0.002487,-1.058180,-0.004799,-0.023093,0.044259,0.014041,0.010794,-0.012885,0.116454,0.005969,0.016794,0.006810,-0.000976,
3.614167,-0.002374,0.051121,0.002703,-0.840520,-0.018942,0.023117,0.047241,0.022457,0.017677,-0.008659,0.134389,0.003587,0.012629,-0.002810,-0.002053,
3.615000,0.002052,0.036858,-0.001872,-0.492362,-0.018090,0.041105,0.049000,0.015821,0.011985,0.017350,-0.041288,0.017377,0.016629,0.006176,0.001760,
3.615833,0.000687,0.036022,0.001946,-0.226998,-0.014473,0.041083,0.049377,0.032000,0.024693,0.042980,-0.101321,0.024146,0.016274,0.002641,-0.000983,
3.616667,0.001923,0.047708,0.000119,0.038778,0.013551,0.013575,0.040276,0.020666,0.003004,0.044546,-0.016146,0.010311,0.009107,-0.020741,0.002689,
3.617500,0.001030,0.094506,0.000582,0.294503,0.046878,-0.006191,0.028404,0.003660,0.002458,-0.000863,-0.055270,0.003027,0.006559,0.008359,-0.002331,
3.618333,-0.003215,0.135521,0.001198,0.350435,0.045194,0.022045,0.019703,-0.001602,0.000924,-0.023838,-0.035162,-0.012210,-0.004356,-0.004817,0.001200,
3.619167,-0.000282,0.048370,-0.001236,0.260524,0.022657,0.061485,0.003790,-0.034013,-0.013962,-0.058110,0.021869,-0.020305,-0.002903,0.006566,-0.002893,
3.620000,-0.003601,-0.068695,0.001976,0.214373,-0.005659,0.025124,-0.038872,-0.055565,-0.012606,-0.071635,0.040879,-0.014713,-0.021446,-0.014864,-0.000574,
3.620833,0.001019,-0.116818,-0.002594,0.148440,-0.047263,-0.028016,-0.089369,-0.060603,-0.023243,-0.069748,0.028103,0.000430,-0.020482,0.005357,-0.000082,
3.621667,-0.002599,-0.041243,0.002908,0.075012,-0.093638,-0.021063,-0.088957,0.000165,-0.018261,-0.087068,-0.023340,0.004048,-0.014674,-0.002808,-0.000503,
3.622500,0.001415,-0.018241,-0.001813,0.077169,-0.079200,0.014213,-0.028788,0.081725,-0.015063,-0.048194,-0.059596,0.019924,-0.015327,0.005352,0.001367,
3.623333,-0.000215,-0.015340,0.000486,0.157716,-0.054327,0.011251,0.012556,0.105796,-0.018995,-0.037015,-0.082041,0.022095,-0.016808,0.002983,-0.001034,
3.624167,0.001054,-0.029677,-0.000572,0.270007,-0.025600,-0.008465,0.010664,0.029186,-0.013889,-0.021147,0.007897,0.021983,-0.011344,-0.000911,0.003280,
3.625000,0.001408,0.007073,-0.000867,0.303600,-0.005241,-0.018411,0.001704,-0.011858,-0.007990,-0.019773,0.037955,0.024599,-0.007642,0.006490,-0.000647,
3.625833,-0.000224,0.057799,0.001126,0.313451,0.004143,-0.010680,-0.016454,-0.002097,0.001445,0.023609,-0.017033,0.013900,-0.009217,-0.007009,0.001834,
3.626667,0.002416,0.039611,-0.002068,0.227855,0.015514,-0.018862,-0.016489,-0.001826,0.003883,0.095620,-0.042000,0.010921,-0.004476,0.006659,-0.000723,
3.627500,-0.002728,-0.028905,0.001756,0.122960,0.022915,-0.024208,-0.002358,-0.014887,0.000846,0.080185,-0.026702,-0.005416,-0.004864,-0.008656,0.000532,
3.628333,0.000974,-0.050424,-0.002660,-0.084084,0.037180,-0.017116,0.024422,-0.053364,0.012016,0.053643,0.032545,-0.026126,0.000757,0.006557,-0.001420,
3.629167,-0.002803,0.030724,0.002079,-0.279589,0.030231,-0.009953,0.016406,-0.031079,0.017400,0.045485,0.040856,-0.021316,0.007506,-0.004465,-0.002308,
3.630000,0.001656,0.050643,-0.002032,-0.429513,0.023588,0.002312,0.016480,0.014855,0.031948,0.044609,0.044642,-0.005342,0.018134,0.000089,0.002750,
3.630833,0.001685,0.030683,0.001333,-0.457077,0.028090,0.004272,0.025264,0.081963,0.002559,0.024192,0.040422,-0.007507,0.018302,0.000842,-0.000742,
3.631667,0.000642,0.002575,-0.000033,-0.392905,0.026958,0.006465,0.018350,0.084453,0.003996,0.014776,0.062399,-0.017743,0.021750,-0.003123,0.002780,
3.632500,0.002189,-0.022692,-0.000483,-0.274932,0.008603,-0.002083,0.026263,0.037399,0.005281,0.029962,0.036137,-0.024302,0.021922,0.008185,-0.002096,
3.633333,-0.002373,-0.048773,0.001507,-0.202262,0.005383,-0.020742,0.016352,-0.004147,0.009769,0.024139,-0.011485,-0.042892,0.011807,-0.007502,0.000346,
3.634167,0.001148,-0.083134,-0.001692,-0.118950,0.011358,-0.050709,0.016393,-0.042350,0.002501,-0.003905,-0.012542,-0.047565,0.011557,0.008409,-0.001947,
3.635000,-0.005102,-0.110645,0.002739,-0.030685,-0.010539,-0.024820,0.003192,-0.058925,-0.003402,-0.032348,-0.027133,-0.043800,0.001800,-0.006948,-0.001956,
3.635833,-0.000369,-0.135401,-0.002139,0.054722,-0.006281,-0.004231,0.002384,-0.062894,-0.003367,-0.016790,-0.060121,-0.015558,-0.005246,0.006850,-0.000902,
3.636667,-0.002508,-0.110070,0.002900,0.182417,-0.000268,0.012920,-0.016551,-0.055033,-0.014639,-0.010186,-0.041451,0.008799,-0.011554,-0.001315,-0.001531,
3.637500,0.000386,-0.044231,-0.001674,0.227257,-0.020410,0.020108,-0.011958,-0.033826,-0.013569,-0.013768,-0.007272,0.023800,-0.014672,0.003651,0.001193,
3.638333,0.000834,0.020954,0.001075,0.197769,-0.061808,0.016602,-0.018783,-0.022772,-0.018166,-0.022512,0.008863,0.022447,-0.024353,0.005114,-0.001884,
3.639167,0.000669,0.039439,-0.001212,0.172357,-0.064479,0.030820,-0.014296,-0.007980,0.006360,-0.031400,0.027867,0.026127,-0.024105,-0.003490,0.002208,
3.640000,0.001875,0.061460,-0.000600,0.121381,-0.031153,0.006946,-0.015742,0.001710,-0.008354,-0.033122,0.012672,0.024636,-0.011628,0.007592,-0.001331,
3.640833,-0.001194,0.149153,0.001384,0.029530,-0.009727,0.006810,-0.016870,0.007232,-0.010123,-0.018390,-0.011540,0.017842,-0.010559,-0.005892,0.001842,
3.641667,0.003060,0.257379,-0.001668,-0.014462,0.019349,0.009993,-0.009139,0.002657,0.001509,-0.005530,-0.009211,0.026362,-0.010050,-0.000915,-0.000324,
3.642500,-0.001538,0.226400,0.001535,-0.075844,0.030608,0.003399,0.000427,0.014106,-0.010841,-0.007988,-0.005975,0.026865,-0.006428,-0.007844,0.000561,
3.643333,0.002713,0.069814,-0.001977,-0.074014,0.046191,0.014209,-0.000686,0.016586,0.007757,-0.004267,0.001524,0.024702,0.005965,-0.005165,0.002211,
3.644167,-0.000667,-0.004545,0.001835,0.029489,0.047801,0.009787,0.004454,0.011352,0.004356,-0.005978,0.000006,0.017896,0.007916,-0.002950,-0.000868,
3.645000,0.001447,-0.033901,-0.001374,0.086636,0.031637,0.008760,0.003181,0.015989,0.000012,0.004257,0.015863,0.009961,0.010724,0.000324,0.002921,
3.645833,-0.000102,-0.058844,0.000148,0.124238,0.016934,0.002746,0.016395,0.003680,0.003576,0.018947,0.015515,0.010204,0.011042,0.003435,-0.001221,
3.646667,-0.001346,-0.075713,0.000142,0.129099,0.005991,0.002124,-0.008548,0.005284,0.023134,-0.013498,0.013143,0.000922,0.005061,-0.004450,0.002573,
3.647500,0.001377,-0.082835,-0.000932,0.094409,-0.014463,-0.001041,-0.015497,0.004056,0.013672,-0.015118,0.018650,-0.011332,0.006670,0.007491,-0.001259,
3.648333,-0.002614,-0.087233,0.001350,0.034234,-0.030842,0.013082,0.019348,0.001557,0.006775,0.001103,0.027748,-0.017106,0.010835,-0.006367,0.001473,
3.649167,0.002550,-0.095782,-0.002167,-0.079035,0.005227,0.015798,0.034952,-0.000806,0.021364,0.014096,0.034622,-0.006342,0.011146,0.008602,-0.000217,
3.650000,-0.001593,-0.084833,0.002556,-0.169422,0.019433,0.003587,0.023989,0.008900,0.003725,0.023543,0.026131,-0.013079,0.014771,-0.005889,0.000384,
3.650833,0.002198,-0.008922,-0.002030,-0.138992,0.008723,-0.006479,-0.003624,0.009645,0.005587,0.031415,-0.022921,-0.011852,0.017888,0.008296,0.000529,
3.651667,-0.000877,0.057490,0.001624,-0.058587,-0.019428,-0.007701,0.004297,-0.005721,-0.013641,0.043957,-0.091495,-0.022816,0.009196,0.002633,-0.001613,
3.652500,-0.000442,0.029106,-0.000368,0.022309,-0.025809,-0.005289,0.003808,-0.014446,-0.001316,0.031555,-0.068524,-0.027524,-0.000482,0.002302,0.000366,
3.653333,-0.001991,0.002363,0.000691,0.060914,-0.032552,-0.021541,-0.011652,-0.034218,-0.014810,0.006862,-0.037036,-0.010121,-0.000175,-0.005362,-0.004824,
3.654167,-0.002929,-0.026551,0.000835,0.063891,-0.032642,-0.023977,-0.030182,-0.069152,-0.016739,-0.033946,-0.003302,-0.000225,-0.011107,-0.005251,0.000057,
3.655000,0.001475,-0.058547,-0.001616,0.065672,-0.026392,-0.018267,-0.014699,-0.127794,-0.011373,-0.027707,0.052195,0.023973,-0.005371,0.001109,-0.002233,
3.655833,-0.001598,-0.036705,0.001732,0.072167,-0.008623,-0.010688,-0.013421,-0.040930,-0.025412,-0.008153,0.132951,0.031790,-0.012436,-0.006573,0.001887,
3.656667,0.002960,-0.028315,-0.001329,0.271028,0.001889,-0.014081,-0.012762,0.166246,-0.003770,-0.017251,0.130923,0.031916,-0.005005,0.010155,0.000667,
3.657500,-0.001636,-0.026812,0.002324,0.378734,0.009254,-0.000084,-0.014399,0.289399,-0.003660,-0.015487,-0.005165,0.015644,-0.011938,-0.005772,0.000516,
3.658333,0.001857,-0.032200,-0.002568,0.219359,0.035892,0.024871,-0.012986,0.134104,0.003912,-0.008053,-0.107628,0.006926,-0.005327,-0.001559,0.000975,
3.659167,-0.000447,-0.024037,0.000933,-0.025939,0.054630,0.026130,-0.005925,-0.006551,0.006747,-0.016770,-0.171737,-0.016212,-0.003349,-0.001768,-0.001921,
3.660000,0.000456,-0.022932,-0.001212,-0.293316,0.055081,0.016339,0.002972,-0.025641,-0.000795,-0.013257,-0.145003,-0.023253,0.002067,-0.002585,0.002659,
3.660833,0.000904,0.132078,-0.000000,-0.468078,0.027617,0.002501,-0.006889,-0.046042,0.005859,0.002183,-0.020865,-0.022737,0.006175,0.006062,-0.001457,
3.661667,-0.000933,0.268242,0.000297,-0.451673,0.005338,-0.008836,-0.008193,-0.047960,-0.012346,0.027723,0.048858,-0.027172,0.004843,-0.004815,0.002058,
3.662500,0.001962,0.197085,-0.001390,-0.364319,0.005929,-0.017534,0.023782,-0.048228,0.018297,0.037125,0.039602,-0.030443,-0.002704,0.008270,-0.000988,
3.663333,-0.004294,0.085960,0.001959,-0.282558,-0.027080,0.006001,0.035175,-0.033613,0.009751,0.014833,0.037130,-0.026894,0.001224,-0.008086,-0.000370,
3.664167,0.000440,-0.042741,-0.001863,-0.226133,-0.029920,-0.001106,0.040022,-0.031013,0.005051,0.000223,0.048008,-0.016052,0.007619,0.007153,-0.002802,
3.665000,-0.002147,-0.123756,0.001945,-0.220096,-0.021372,0.000965,0.042902,-0.022463,0.027855,-0.000894,0.036691,-0.015144,0.006253,-0.004455,-0.001570,
3.665833,0.002289,-0.147672,-0.002334,-0.145731,-0.010905,0.003056,0.056322,-0.017456,0.007214,0.018057,0.020581,0.004228,0.013604,0.006378,0.001342,
3.666667,0.000473,-0.082953,0.001780,0.027653,-0.014397,-0.008872,0.022755,-0.031584,0.009966,-0.024086,0.021960,0.007598,0.005105,0.002876,-0.000474,
3.667500,0.000644,0.058909,-0.000971,0.218003,-0.014460,-0.002163,-0.053836,-0.034504,-0.008899,-0.059254,0.018250,0.007190,-0.008862,0.001063,0.001679,
3.668333,0.001277,0.148319,0.000703,0.332896,-0.009876,-0.008247,-0.037653,-0.026688,-0.006500,-0.009150,0.018610,0.018585,-0.015625,0.004293,-0.001658,
3.669167,-0.000071,0.132441,0.001920,0.438146,-0.012854,-0.010027,-0.013996,-0.008601,-0.002215,0.006919,0.038301,0.016622,-0.010446,-0.005133,0.003399,
3.670000,0.002398,0.033211,-0.001745,0.551801,-0.015764,-0.002764,-0.022544,-0.009843,-0.011758,0.006672,0.017510,0.023133,-0.009178,0.009099,0.000218,
3.670833,-0.001996,-0.085924,0.001611,0.433874,-0.015857,0.010957,-0.013554,-0.003553,-0.007814,0.004168,-0.007750,0.013259,-0.024321,-0.009164,0.001617,
3.671667,0.002156,-0.119087,-0.002205,0.259096,-0.013585,0.017417,0.007476,-0.005278,-0.012815,0.007207,-0.008639,0.018896,-0.010384,0.006911,0.000728,
3.672500,-0.001777,-0.076968,0.002220,0.090489,-0.005738,-0.006870,0.000416,0.001479,-0.007533,0.000398,0.019271,0.016856,-0.013430,-0.005239,0.000146,
3.673333,0.002072,-0.062103,-0.002815,-0.058535,0.012116,-0.012451,-0.012762,0.012626,-0.035610,-0.009681,0.046840,0.014769,-0.009940,0.003671,0.001549,
3.674167,-0.000945,-0.084395,0.001764,-0.167106,0.015419,-0.011974,-0.012830,0.017664,-0.011294,-0.033694,0.026162,0.009426,-0.005995,0.002360,-0.001779,
3.675000,-0.000148,-0.094532,-0.000370,-0.246871,0.018218,-0.007864,-0.007109,0.010829,0.014297,-0.005403,0.006072,0.010587,0.001785,-0.004748,0.001912,
3.675833,0.000189,-0.085759,-0.000520,-0.276842,0.015638,-0.000257,-0.015889,0.007109,-0.000344,0.009440,-0.035541,0.005119,-0.002754,-0.017500,-0.003248,
3.676667,-0.002680,-0.083966,0.000857,-0.250540,-0.000704,0.003690,-0.052896,0.009290,0.001845,-0.006398,-0.099271,-0.008670,0.000857,-0.006296,-0.000017,
3.677500,-0.000059,-0.054303,-0.001275,-0.154481,-0.004862,0.005064,-0.021384,0.008100,0.001479,-0.005303,-0.106213,-0.001651,0.003482,0.003536,-0.003502,
3.678333,-0.002781,-0.011047,0.002544,-0.019749,0.025297,0.009524,0.011058,0.000831,0.027239,0.005558,-0.093267,-0.005428,-0.002187,-0.004789,0.000030,
3.679167,0.002275,0.024058,-0.001876,0.036501,0.047816,0.005489,0.020632,-0.028961,0.016097,0.012908,-0.077192,0.000274,0.020333,0.010385,0.000201,
3.680000,-0.001524,0.068480,0.001486,0.068001,0.038589,-0.000773,0.026726,-0.049658,0.017023,0.027273,-0.031103,-0.004250,0.025277,-0.002516,0.000217,
3.680833,0.002455,0.086286,-0.002018,0.115963,0.021272,0.005855,0.026292,-0.023388,0.006660,0.029876,0.006123,-0.003149,0.027454,0.003200,0.002823,
3.681667,0.000478,0.081213,0.001498,0.092497,-0.010390,-0.001166,0.027117,0.031106,0.012156,0.034133,0.014679,-0.004379,0.028546,0.002510,-0.000832,
3.682500,-0.000588,0.071181,-0.000480,0.019569,-0.019621,0.001058,0.022490,0.093552,0.018390,0.058034,-0.001437,-0.002770,0.020159,-0.001535,0.001918,
3.683333,0.001392,0.065104,-0.000779,-0.035547,-0.023817,0.016042,0.015313,0.102167,0.006580,0.044950,-0.013815,-0.000934,0.017550,0.008919,-0.002508,
3.684167,-0.000752,0.052660,0.000753,-0.068454,-0.019466,0.008389,0.013367,0.060167,-0.004215,0.020647,0.007475,-0.004074,0.019336,-0.003359,0.001911,
3.685000,0.001982,0.031450,-0.001072,-0.045163,-0.013130,0.004955,0.012225,0.005247,-0.001346,0.006312,0.028422,0.000462,0.008570,0.002981,-0.000540,
3.685833,-0.002156,0.021193,0.001681,-0.103052,-0.015182,0.001773,0.010205,-0.011934,-0.014429,-0.012727,0.030574,-0.005339,-0.006675,-0.005476,0.000209,
3.686667,0.002400,0.050749,-0.002737,-0.195642,-0.014940,0.006621,0.002724,-0.011673,0.000620,-0.039548,0.041398,0.001863,-0.002613,0.007889,0.000649,
3.687500,-0.001745,0.061838,0.002152,-0.201087,-0.017895,-0.008581,-0.016176,-0.009237,-0.021670,-0.087603,0.114289,-0.008454,-0.007794,-0.000411,-0.000594,
3.688333,0.001279,0.018449,-0.001809,-0.174864,-0.001613,0.015822,-0.015374,-0.012114,-0.020121,-0.071310,0.193231,-0.020569,-0.020863,0.002886,0.002128,
3.689167,-0.000583,-0.031062,0.000487,-0.102118,-0.000268,0.011615,-0.013342,-0.022760,-0.020072,-0.031586,0.126063,-0.019678,-0.019411,0.003744,-0.002019,
3.690000,-0.001531,-0.064590,0.000188,-0.016234,-0.000581,0.009613,-0.020159,-0.034477,-0.025495,-0.020482,0.023222,-0.022708,-0.029852,-0.001198,0.000546,
3.690833,-0.000648,-0.072401,0.000043,0.097154,-0.005903,-0.009571,-0.024391,-0.051860,-0.011826,-0.003831,-0.051711,-0.025680,-0.016957,-0.017586,-0.003910,
3.691667,-0.005716,-0.056214,0.001728,0.176858,-0.006463,-0.031148,-0.030929,-0.047462,0.006441,0.004466,-0.060797,-0.021407,-0.024230,-0.004679,-0.001651,
3.692500,-0.000712,-0.024311,-0.001622,0.318229,0.003544,-0.028423,-0.026811,-0.051361,0.082408,0.007911,-0.033242,-0.004226,-0.017660,0.011734,-0.004122,
3.693333,-0.002878,0.026002,0.002657,0.474850,0.004746,-0.030247,-0.014641,-0.037026,0.075246,-0.006014,-0.004662,0.005132,-0.013737,-0.002682,-0.000641,
3.694167,0.002284,0.055153,-0.001456,0.619057,0.011034,-0.024575,0.001149,-0.028281,0.036691,0.019448,-0.019375,0.016147,0.003244,0.005784,0.001164,
3.695000,0.000430,0.028296,0.002213,0.575774,0.004101,-0.003330,0.021162,0.004306,0.001548,0.029215,-0.043575,0.014498,0.011608,-0.001780,-0.000232,
3.695833,0.003312,-0.019073,-0.002358,0.217074,0.011419,0.014405,0.033030,0.031265,-0.000106,0.045564,-0.041924,0.025536,0.008600,-0.000046,0.004022,
3.696667,0.002689,-0.015446,0.000090,-0.137126,0.008575,0.007258,0.023167,0.055780,-0.044239,0.062396,-0.043325,0.026850,0.007952,0.003357,0.001108,
3.697500,0.001156,-0.022678,-0.000362,-0.308652,0.006252,0.000853,0.017506,0.070202,-0.085509,0.031806,-0.022654,0.014493,0.017442,-0.002103,0.004456,
3.698333,0.003902,-0.018236,-0.001424,-0.375206,-0.004094,-0.003904,0.023062,0.026751,-0.134720,-0.003170,0.013784,0.016405,0.023185,-0.008795,-0.000125,
3.699167,-0.000671,-0.011784,0.002243,-0.323672,-0.006445,0.001675,0.018618,-0.032177,-0.141797,-0.071055,0.045200,-0.007683,0.002906,-0.003905,0.003081,
3.700000,0.002697,-0.016335,-0.002329,-0.242376,-0.002023,-0.011870,0.043845,-0.054113,-0.007523,-0.035881,0.024568,-0.019155,0.006047,0.011804,-0.000268,
3.700833,-0.002017,-0.011177,0.001948,-0.201445,-0.007925,0.007788,0.058763,0.020736,0.039402,0.005777,-0.028751,-0.012508,0.005453,-0.002714,-0.000866,
3.701667,0.001667,-0.018776,-0.001863,-0.169187,-0.004016,0.063996,0.037279,0.117578,0.055774,-0.001914,-0.038010,-0.000250,0.000672,0.008234,0.000678,
3.702500,-0.002121,-0.015965,0.001651,-0.138276,0.008017,0.047184,0.019372,0.110507,0.042234,0.007746,-0.035550,0.006176,-0.009051,0.001619,-0.001589,
3.703333,-0.000260,-0.008260,-0.000787,-0.103778,0.010922,0.026008,-0.008226,0.034597,0.030699,0.019972,-0.009448,0.013635,-0.003564,0.003990,0.001642,
3.704167,0.000078,0.001729,0.000436,-0.071848,0.008347,0.008850,-0.057105,-0.025790,0.048049,-0.028235,-0.006058,0.013729,-0.004066,0.004210,-0.002449,
3.705000,-0.001261,-0.000351,-0.000172,-0.052101,0.013404,0.013400,-0.193629,-0.047629,0.004276,-0.053846,0.060267,0.015910,-0.013447,-0.028393,0.001550,
3.705833,0.000606,-0.009928,-0.000628,-0.027247,0.005937,0.022564,-0.146787,-0.056873,0.024971,0.022503,0.108104,0.026422,-0.009263,0.012538,-0.002841,
3.706667,-0.003478,-0.004721,0.002120,-0.015970,0.004242,0.004749,-0.032679,-0.050327,0.028658,0.010558,0.056802,0.014886,-0.015917,-0.003613,-0.000519,
3.707500,0.000982,0.002151,-0.002914,-0.003952,0.027533,0.022972,-0.002499,-0.027079,0.042343,0.010435,-0.033899,0.008904,-0.008982,0.008911,-0.001400,
3.708333,-0.002800,0.012074,0.002732,0.007283,0.037038,0.030542,0.012136,-0.014440,0.022379,0.028409,-0.278811,-0.003749,-0.006145,-0.018706,-0.001215,
3.709167,0.001656,0.011787,-0.001998,0.009521,0.032592,-0.034791,0.029410,-0.026135,0.007963,-0.019882,-0.377091,-0.013175,-0.005565,0.006007,0.000952,
3.710000,-0.000911,0.020228,0.002427,0.011656,0.011287,-0.087875,0.035155,-0.037888,0.020587,-0.069877,-0.135923,-0.016951,-0.011960,0.000653,-0.001613,
3.710833,0.000638,0.024601,-0.001236,0.015567,-0.012544,-0.099705,0.026651,-0.032438,-0.006000,-0.060987,0.089412,-0.012199,0.002450,0.001399,0.002838,
3.711667,0.001114,0.027523,0.000747,0.017332,-0.028224,-0.136333,0.030012,-0.021965,0.010410,-0.029210,0.101410,-0.012669,0.014022,0.005347,-0.001107,
3.712500,-0.000245,0.024747,-0.000322,0.061084,-0.033008,-0.104659,0.022521,0.012178,-0.006975,0.027596,0.031539,-0.002357,0.015743,-0.012218,0.002574,
3.713333,0.001748,0.012181,-0.001392,0.064287,-0.039408,-0.024191,0.036236,0.033253,-0.005095,0.033446,0.047731,0.000715,0.015552,0.008673,-0.000769,
3.714167,-0.002674,0.004349,0.001353,-0.033652,-0.046197,-0.023073,0.036989,0.032145,0.000285,0.053036,0.063385,-0.015519,0.015280,-0.007661,0.000462,
3.715000,0.001750,-0.013215,-0.002464,-0.052278,-0.056264,0.003398,0.033175,0.008592,0.008967,0.082241,0.077034,-0.014602,0.012028,0.008515,-0.001211,
3.715833,-0.002681,-0.007217,0.002111,-0.269096,-0.074481,0.095991,0.058975,-0.001045,0.021668,0.062152,0.244054,-0.017599,0.012811,-0.006731,-0.000448,
3.716667,0.002038,-0.027826,-0.002011,-0.388853,-0.073671,0.141515,0.039462,-0.002061,0.006454,0.045091,0.324144,-0.003457,0.005721,0.002908,0.001227,
3.717500,-0.001030,-0.036405,0.001648,-0.228052,-0.040692,0.094522,0.026045,-0.008601,-0.005437,0.031802,0.169908,-0.003305,0.002651,0.001271,-0.002749,
3.718333,0.000018,0.000341,-0.001101,-0.055685,0.023103,0.057880,0.009249,-0.026725,-0.017854,0.006242,-0.066231,-0.002493,0.009388,0.001024,0.002274,
3.719167,0.000910,0.032703,0.000422,0.059225,0.066769,0.024585,0.004312,-0.038996,-0.021826,-0.014221,-0.099118,0.001729,0.016765,0.008118,-0.001557,
3.720000,-0.000794,0.037214,0.001945,0.230381,0.081935,0.018911,-0.009237,-0.025844,-0.016764,-0.011760,-0.060635,0.001282,0.005541,-0.004911,0.001323,
3.720833,0.001771,0.010244,-0.001415,0.529142,0.082962,0.011874,-0.028066,-0.018518,-0.039917,-0.021804,-0.043466,0.005636,0.003016,0.009240,-0.001141,
3.721667,-0.002226,-0.032610,0.002244,0.825682,0.062238,-0.011173,-0.047168,0.001320,-0.035443,-0.041787,-0.045396,0.004426,-0.007306,-0.005429,0.001428,
3.722500,0.001862,-0.078501,-0.001879,1.036952,0.004975,-0.004763,-0.041851,0.005460,-0.051100,-0.018177,-0.035839,0.001329,-0.013690,0.007233,-0.000430,
3.723333,-0.001831,-0.063771,0.002238,0.968592,-0.035411,-0.007355,-0.026789,0.050219,-0.018060,-0.046978,-0.029077,-0.005626,-0.007147,-0.005112,-0.001068,
3.724167,0.000732,-0.011587,-0.002648,0.670045,-0.019548,-0.015301,-0.026269,0.048624,-0.013511,-0.032843,-0.023833,-0.003145,-0.005544,0.000871,0.000735,
3.725000,-0.001281,0.028791,-0.000210,0.218473,0.022506,-0.020222,-0.020477,-0.018253,-0.013317,-0.026450,-0.017610,0.002681,-0.009654,-0.001676,-0.001735,
3.725833,0.000371,0.020610,-0.001434,-0.213610,0.045277,-0.009168,-0.023013,-0.035529,-0.020796,-0.022626,-0.011878,0.004547,-0.011093,-0.006498,0.002052,
3.726667,0.001414,0.003254,0.000699,-0.401814,0.030144,-0.018474,-0.007953,0.052464,0.000868,-0.019550,-0.021074,0.006892,-0.011394,0.004561,-0.001179,
3.727500,-0.001049,-0.023569,0.002374,-0.169487,0.018751,-0.009252,-0.008269,0.138421,0.009459,-0.018297,-0.021788,-0.001559,-0.013155,-0.005580,0.002000,
3.728333,0.001680,-0.014532,-0.001596,-0.095254,0.017953,-0.019823,-0.006575,0.159738,0.011744,-0.013069,-0.022340,0.000568,-0.012103,0.008702,-0.001990,
3.729167,-0.003216,0.016634,0.001452,-0.467460,0.016900,-0.020455,0.003074,0.121551,0.017393,0.015819,-0.018531,-0.008687,-0.010525,-0.009664,0.000126,
3.730000,0.002115,0.020943,-0.003129,-0.907414,-0.001820,-0.002166,0.013811,0.037080,0.028145,0.020765,-0.025681,0.003952,-0.005975,0.005543,0.000720,
3.730833,-0.001094,0.048740,0.002360,-1.154611,-0.034716,-0.003122,0.010530,-0.028428,0.012319,0.021310,-0.033921,0.016213,-0.010345,-0.005951,-0.000820,
3.731667,0.002721,0.077272,-0.002069,-1.132749,-0.042591,-0.008540,0.010478,-0.064662,0.021090,0.038978,-0.000108,0.009946,-0.009588,-0.007983,0.002068,
3.732500,-0.000174,0.089884,0.001284,-1.109069,-0.044229,-0.005620,0.009847,-0.082362,0.000191,0.012444,0.024769,0.005143,0.000735,0.002342,-0.000686,
3.733333,0.000141,0.051758,-0.000246,-0.802787,-0.053839,0.004711,0.010629,-0.089065,0.003385,0.018017,0.020861,0.011417,0.000496,-0.000002,0.002057,
3.734167,0.000917,-0.014251,0.000360,-0.291733,-0.058004,0.010538,0.014818,-0.090780,0.001112,0.008105,0.005258,0.006032,0.006190,0.011077,-0.002368,
3.735000,-0.001660,-0.010525,0.002492,0.236017,-0.044988,0.004223,0.008847,-0.077938,-0.010556,-0.007663,-0.005090,-0.000792,0.007916,-0.000738,0.001754,
3.735833,0.002480,-0.031253,-0.001481,0.619775,-0.019379,-0.005084,0.003560,-0.067061,-0.000767,0.010252,-0.000699,0.007723,0.018355,0.013835,-0.000987,
3.736667,-0.001311,-0.045350,0.002023,0.890262,0.005085,0.008095,0.003093,-0.039717,-0.003528,0.003730,-0.039212,0.005628,0.006852,-0.003033,0.001463,
3.737500,0.002377,-0.041263,-0.002103,1.061760,0.030231,-0.002476,0.003796,-0.018968,-0.003723,-0.002036,-0.099526,0.002834,0.015538,0.001297,0.001015,
3.738333,-0.001258,-0.026514,0.002011,1.002710,0.027981,-0.013908,0.000343,-0.022984,-0.027750,-0.015270,-0.107280,0.001465,0.005518,-0.009490,-0.001567,
3.739167,0.000601,-0.006486,-0.001964,0.753228,0.033733,-0.003158,-0.002980,-0.023078,-0.036101,-0.016882,-0.079654,-0.001389,0.003048,0.001073,0.001192,
3.740000,-0.001507,-0.019824,0.000318,0.427899,0.029637,-0.002567,-0.008753,-0.005206,-0.008965,-0.019372,0.039110,-0.002691,-0.005440,0.001858,-0.001540,
3.740833,-0.001174,-0.009193,-0.001216,0.138092,0.031716,-0.002824,-0.017116,0.027447,-0.012907,-0.015557,0.123195,-0.006113,-0.005442,-0.002710,0.001220,
3.741667,0.001295,0.014081,-0.001225,-0.259965,0.031581,-0.003157,-0.008221,0.031722,0.009853,-0.014581,0.107057,-0.015179,0.003201,0.005833,-0.001817,
3.742500,-0.001732,-0.004045,0.000292,-0.785862,0.038392,0.000868,-0.009064,0.050835,-0.011089,-0.009264,0.092237,-0.028680,-0.008499,-0.034006,0.001248,
3.743333,0.000886,-0.024077,-0.001854,-0.800802,0.027586,0.004530,-0.005749,0.055067,0.001707,-0.000670,0.081089,-0.010463,0.002182,0.009609,-0.001791,
3.744167,-0.003365,0.036061,0.003172,-0.473672,-0.008764,0.004177,-0.010323,0.042936,0.019315,0.003272,0.034767,-0.000518,0.005948,-0.003089,-0.001168,
3.745000,0.001078,0.041010,-0.001263,-0.143686,-0.024267,-0.000487,0.011860,0.032492,0.032636,0.017973,-0.039958,-0.000837,0.009812,0.009534,-0.000548,
3.745833,-0.001195,-0.019765,0.001931,0.075266,-0.018761,0.006875,0.004652,0.012796,0.049653,0.022373,-0.056974,0.001848,0.009494,-0.001501,-0.002065,
3.746667,0.000191,-0.097591,-0.001894,0.147829,-0.014363,0.005062,0.010936,-0.017019,0.030274,0.014027,-0.012878,0.000815,0.015363,0.001344,0.002673,
3.747500,-0.000563,-0.117390,0.001148,0.117482,-0.024797,0.014072,0.014692,-0.053852,0.047014,0.025122,0.002648,-0.002872,0.004822,0.003423,-0.002052,
3.748333,-0.000710,-0.064961,0.000529,0.081357,-0.031129,0.014992,0.022328,-0.054169,0.038415,0.026506,-0.010977,0.001769,-0.003524,-0.001672,0.001766,
3.749167,0.001887,-0.010024,-0.000853,0.107987,-0.034112,0.010271,0.032472,-0.021890,0.163203,0.025336,-0.017105,0.004971,0.007245,0.011390,-0.001741,
3.750000,-0.001317,0.078872,0.001275,0.168040,-0.021371,0.007542,0.029251,0.032498,0.357027,0.061424,0.008236,0.000629,-0.006069,-0.003470,0.001616,
3.750833,0.003105,0.194273,-0.002089,0.238983,-0.010440,0.001166,0.019833,0.049375,0.294775,0.055258,0.013786,0.011173,-0.000756,0.011425,0.000700,
3.751667,-0.001173,0.187124,0.002482,0.308602,-0.007561,-0.001988,0.007570,0.046017,0.158702,0.005296,0.008245,0.007612,0.000886,-0.011061,0.001155,
3.752500,0.003091,0.055315,-0.001948,0.346464,-0.001579,0.009834,-0.020359,0.019403,0.087444,-0.021185,0.005798,0.004751,-0.002531,0.003229,0.002066,
3.753333,-0.000582,-0.016799,0.001709,0.252503,0.004314,-0.006700,-0.049921,-0.006178,0.058226,-0.057767,0.002773,0.000303,-0.009345,-0.001703,-0.001449,
3.754167,0.000625,-0.028883,-0.001498,0.096130,0.007692,-0.014359,-0.036110,-0.025979,0.058370,-0.040223,0.004951,0.005106,-0.004161,-0.000376,0.001595,
3.755000,-0.000001,-0.031260,0.000331,-0.071133,-0.007610,-0.004594,-0.021348,-0.026558,0.031901,-0.030817,-0.000507,-0.002807,-0.003623,0.002786,-0.001465,
3.755833,-0.000630,-0.074252,0.000178,-0.143171,0.010300,0.000928,-0.012353,-0.004703,-0.407930,-0.029096,0.003918,-0.005425,-0.010645,-0.004882,0.002188,
3.756667,0.001487,-0.119984,-0.001195,-0.114291,0.040676,-0.015033,-0.007298,-0.013058,-1.126286,-0.046199,0.000802,0.003666,-0.005094,0.008358,-0.001638,
3.757500,-0.001892,-0.178189,0.001706,-0.141008,0.038967,-0.010972,-0.012287,-0.058190,-1.340867,-0.058169,-0.005922,-0.002382,-0.006204,-0.006628,0.000487,
3.758333,0.001898,-0.127069,-0.002105,-0.060928,0.028215,-0.012522,-0.008707,-0.079687,-0.677504,-0.064235,-0.008966,0.007413,-0.005283,0.012263,-0.000747,
3.759167,-0.003010,-0.027779,0.002019,0.050165,0.013148,-0.010526,-0.002050,-0.012109,-0.130246,-0.049280,-0.010656,-0.011648,-0.014085,-0.022250,-0.000914,
3.760000,0.001693,-0.017773,-0.001485,0.022061,0.008105,0.001579,-0.000404,0.066850,0.240100,-0.004137,-0.001876,-0.013628,-0.009568,0.004732,0.000292,
3.760833,-0.001844,-0.053994,0.002488,-0.045488,0.007432,-0.007332,0.006912,0.104362,0.385106,0.011549,0.002842,-0.006913,-0.012332,-0.003074,-0.002927,
3.761667,-0.001416,-0.014202,-0.001014,-0.019425,0.017068,-0.002163,0.010135,0.050646,0.382234,0.041434,0.010936,-0.014228,-0.006808,0.000565,0.000414,
3.762500,-0.000226,0.104978,0.000520,0.082302,0.007400,0.000456,0.020402,0.057482,0.415905,0.052882,0.012302,-0.012067,0.008384,0.008325,-0.002501,
3.763333,-0.000867,0.253500,0.000223,0.082497,0.002978,0.009377,0.013300,0.098272,0.503438,0.063001,0.008738,0.004612,0.013413,-0.002836,0.003739,
3.764167,0.003375,0.296935,-0.001751,-0.015759,0.002262,0.013460,0.013395,0.061118,0.550127,0.070281,-0.003907,0.009573,0.011189,0.007367,-0.000397,
3.765000,-0.001539,0.156689,0.001310,-0.190399,-0.005294,0.005688,0.005579,0.026535,0.469019,0.074583,-0.013909,-0.005114,0.019269,-0.010658,0.001724,
3.765833,0.002245,0.028361,-0.001732,-0.321014,-0.005212,0.007116,0.013653,-0.027200,0.141681,0.012443,-0.013356,0.007403,0.016304,0.006566,0.000184,
3.766667,-0.002515,0.015838,0.002398,-0.436965,-0.009712,0.006908,0.013505,-0.057872,-0.140049,-0.009470,-0.023170,0.015236,0.010087,-0.004438,-0.001050,
3.767500,0.001119,0.000679,-0.002627,-0.486822,-0.029339,0.006282,-0.001432,-0.071937,-0.234835,-0.032503,-0.020019,0.022966,0.018637,-0.002012,0.000311,
3.768333,-0.001045,-0.036531,0.001351,-0.413292,-0.070971,-0.002395,0.001339,-0.073559,0.056903,-0.039407,-0.027257,0.024340,0.007330,-0.000347,-0.002140,
3.769167,0.000609,-0.068059,-0.000623,-0.299859,-0.071447,0.011085,-0.001534,-0.066134,0.235236,-0.006076,-0.021237,0.008371,-0.005051,-0.000815,0.002429,
3.770000,0.001196,-0.096234,-0.000308,-0.230566,-0.028030,-0.007454,0.009167,-0.053508,0.123677,-0.004836,-0.020423,0.002373,-0.004301,0.004366,-0.001240,
3.770833,-0.000808,-0.094544,0.000770,-0.144763,0.007242,-0.003239,-0.001202,-0.011136,0.014298,-0.011432,-0.025421,0.001918,-0.017414,-0.004640,0.002265,
3.771667,0.002378,-0.104677,-0.001663,0.033636,0.027956,0.004801,-0.010370,-0.001898,-0.052326,0.004494,-0.018981,0.001663,-0.021945,0.004212,-0.000788,
3.772500,-0.001757,-0.107590,0.002008,0.199309,0.029840,-0.000432,-0.018194,-0.002910,-0.068304,-0.005437,0.023626,0.002215,-0.028561,-0.009209,0.000890,
3.773333,0.001894,-0.068670,-0.002104,0.283550,0.025404,-0.006435,-0.014913,-0.010049,-0.082071,-0.011176,0.056177,-0.011230,-0.018022,0.008961,-0.000480,
3.774167,-0.003150,-0.020277,0.002176,0.358325,0.020449,-0.004214,-0.015336,-0.011857,-0.103167,-0.017619,0.017348,-0.027996,-0.020376,-0.003074,-0.001848,
3.775000,0.000050,-0.027576,-0.001784,0.401123,0.017113,0.006679,-0.017181,-0.008922,-0.120385,-0.011504,-0.000228,-0.024741,-0.020809,0.005648,-0.000010,
3.775833,-0.002088,-0.034565,0.001884,0.389999,0.005636,-0.006878,-0.005193,-0.005793,-0.103604,-0.010090,0.004685,-0.016576,-0.010155,0.002019,-0.003510,
3.776667,-0.000560,-0.002328,-0.000857,0.317608,0.007841,-0.007813,0.000022,-0.006096,-0.073351,0.002020,0.007381,0.000157,0.001676,-0.005724,0.002453,
3.777500,0.001428,0.037870,0.000827,0.244907,0.003743,0.003102,0.008990,-0.022759,-0.074254,-0.001437,0.008028,0.002413,0.021405,0.001188,-0.001349,
3.778333,-0.001004,0.048816,0.000830,0.187315,0.000367,0.001596,0.002023,-0.005840,-0.062725,0.017517,0.035170,0.001175,0.027978,-0.006541,0.002939,
3.779167,0.002975,0.043659,-0.001761,0.144773,-0.006250,-0.001960,0.010706,0.016022,-0.054514,0.027278,0.046245,-0.000357,0.032383,0.008319,0.000514,
3.780000,-0.001436,0.048214,0.002056,0.097166,-0.009848,0.006770,0.025270,0.050812,-0.041542,0.037290,0.015628,-0.002033,0.027294,-0.007028,0.001294,
3.780833,0.003311,0.063275,-0.002216,0.054523,-0.008437,0.002910,0.020843,0.064860,-0.029586,0.037160,0.011228,-0.000042,0.027049,0.008605,0.000397,
3.781667,-0.000638,0.067666,0.001904,0.031846,-0.006287,-0.003015,0.016196,0.034715,-0.044838,0.013750,-0.005556,-0.004763,0.024621,-0.004291,-0.000348,
3.782500,0.002282,0.039141,-0.001760,0.032941,0.008509,0.010966,0.021856,0.012000,-0.021607,0.009617,-0.040822,0.010197,0.009165,0.003108,0.001347,
3.783333,-0.000596,0.014507,0.000984,-0.007867,0.013829,-0.000008,0.021196,-0.001562,-0.021115,0.003843,-0.044978,0.016760,0.008438,0.000592,-0.002145,
3.784167,0.000036,-0.010171,-0.000851,-0.070233,0.002961,0.013352,0.001097,-0.008374,-0.012089,-0.016856,-0.029617,0.014311,0.002588,-0.002383,0.002600,
3.785000,0.000820,-0.016095,-0.000093,-0.105006,-0.004712,0.024653,-0.033401,-0.014046,-0.018919,-0.043639,-0.001606,0.006356,-0.005961,0.008221,-0.002422,
3.785833,-0.002211,-0.014221,0.001274,-0.132488,-0.001100,0.026576,-0.038497,-0.006952,-0.020801,-0.033176,0.033411,-0.002990,-0.007768,-0.005287,0.001556,
3.786667,0.001776,-0.043283,-0.001327,-0.132860,-0.001767,0.034694,-0.011589,-0.010111,-0.012924,-0.032466,0.002803,-0.000455,-0.006973,0.009734,-0.001487,
3.787500,-0.002632,-0.106767,0.002021,-0.127508,-0.007320,0.006448,-0.033539,-0.011452,-0.019902,-0.042118,0.004380,0.001139,-0.017021,-0.007142,0.000044,
3.788333,0.001504,-0.129887,-0.003176,-0.101647,0.003604,-0.020459,-0.028803,-0.020883,-0.000263,-0.026878,0.024867,0.008196,-0.014128,0.008781,0.000351,
3.789167,-0.002451,-0.091267,0.002002,0.008201,-0.000884,-0.047383,0.001867,-0.018871,-0.002844,-0.022140,0.049313,0.008962,-0.014942,-0.006739,-0.002245,
3.790000,0.000611,-0.039117,-0.001366,0.045656,-0.003236,-0.083003,-0.020248,-0.061421,0.014164,0.023378,0.065973,0.021288,-0.014597,-0.008535,0.001260,
3.790833,0.000312,0.003983,0.000453,0.016574,0.010281,-0.143778,-0.023420,-0.054856,0.013083,0.019661,0.016866,0.018466,-0.014327,0.003543,-0.000732,
3.791667,-0.000447,0.018038,0.000441,0.074553,0.008846,-0.070992,-0.009006,0.097849,0.022920,0.008992,-0.025827,0.004768,-0.016735,-0.001785,0.002155,
3.792500,0.000927,0.040571,-0.000944,-0.001369,-0.007083,0.016665,-0.000340,0.205933,0.044913,-0.018989,-0.138394,-0.019505,-0.008707,0.007676,-0.003047,
3.793333,-0.003347,0.177761,0.001027,-0.137608,-0.013244,0.026441,0.011747,0.091751,0.033453,-0.021234,-0.227747,-0.050231,-0.008254,-0.025752,-0.000166,
3.794167,-0.001063,0.288892,-0.001121,-0.191257,-0.004754,0.021988,0.018416,-0.054154,0.049734,-0.002305,-0.109244,-0.043617,-0.007291,0.010542,-0.003389,
3.795000,-0.003969,0.142602,0.001920,-0.230080,-0.011214,0.005463,0.040120,-0.044599,0.035925,-0.026425,0.051720,-0.029111,-0.007801,-0.008107,-0.000817,
3.795833,0.002278,0.000837,-0.002211,-0.243815,-0.003479,0.034560,0.041772,0.019202,0.059456,0.026661,0.115539,0.002752,-0.000778,0.005125,0.000992,
3.796667,0.000285,-0.030713,0.002052,-0.250530,-0.010847,0.062294,0.023069,0.008720,0.054991,0.086776,0.122966,0.009555,0.004170,-0.003319,0.000054,
3.797500,0.002868,-0.034505,-0.001161,-0.220947,0.006051,0.094624,0.013002,-0.047102,0.051934,0.097473,0.095525,0.001529,0.018951,0.003182,0.003846,
3.798333,0.001942,0.022664,0.000967,-0.159010,0.018072,0.100880,0.016908,-0.044249,0.027181,0.037093,-0.002477,0.008893,0.015498,0.006320,-0.000143,
3.799167,0.000405,0.034987,-0.000107,-0.070148,0.010261,0.066866,-0.014659,0.025622,0.006134,-0.027675,-0.053390,0.014104,0.007706,-0.001381,0.003194,
3.800000,0.002380,-0.028727,-0.000569,0.018562,-0.000138,-0.017803,0.035022,0.049401,0.020581,-0.019467,-0.002732,0.008015,0.012065,0.008310,-0.001250,
3.800833,-0.001291,-0.104142,0.000801,0.059926,0.005032,-0.032600,0.035629,-0.001487,0.004790,0.008619,0.012933,0.010775,0.002342,-0.007638,0.001022,
3.801667,0.000839,-0.131192,-0.001794,0.067640,0.012192,-0.031716,-0.030401,-0.044984,0.003942,0.033086,0.040604,0.012776,0.002503,0.008914,-0.002043,
3.802500,-0.004353,-0.083066,0.002174,0.125588,0.012643,-0.033488,0.006290,-0.066162,-0.008976,0.049508,0.039539,0.006244,0.002946,-0.004137,-0.002054,
3.803333,0.001443,-0.065850,-0.001943,0.231437,0.011422,-0.025741,0.029109,-0.070382,-0.005297,0.011497,0.010039,0.020479,0.003225,0.009667,0.001601,
3.804167,-0.000235,-0.052561,0.001418,0.241232,0.002730,-0.031548,0.000656,-0.050331,0.001058,-0.024643,-0.070023,0.011390,-0.000008,-0.002468,-0.000539,
3.805000,0.001446,-0.046110,-0.001322,0.196082,0.002743,-0.017072,-0.051315,-0.020355,-0.017578,-0.035414,-0.048833,-0.008661,-0.001096,-0.006972,0.002664,
3.805833,0.000536,-0.027275,0.000670,0.175822,-0.014783,0.005445,-0.026412,-0.000744,-0.033494,-0.083833,0.040953,-0.014495,0.000120,0.004851,-0.001605,
3.806667,-0.002050,-0.005967,0.000833,0.155421,-0.023297,0.017044,0.013554,0.019046,-0.027992,-0.100164,0.114028,-0.015721,-0.009931,-0.003618,0.000841,
3.807500,0.000401,0.024703,-0.001139,0.157264,-0.016540,-0.002148,-0.039917,0.020571,-0.026784,-0.099509,0.109503,-0.005168,-0.006830,0.008972,-0.002507,
3.808333,-0.001875,0.051335,0.001164,0.157612,-0.015718,-0.021952,-0.063386,0.015913,-0.033463,-0.040511,0.104581,-0.002519,-0.009034,-0.006970,0.001623,
3.809167,0.003022,0.039179,-0.001721,0.198146,-0.003739,-0.025158,-0.038089,0.001751,-0.017600,0.023433,0.169448,0.004585,-0.003721,0.008980,-0.000042,
3.810000,-0.001998,0.018953,0.002263,0.256874,-0.001807,0.063586,-0.016515,0.009249,-0.013160,0.044878,-0.051124,0.004852,-0.000197,-0.016876,0.000582,
3.810833,0.002901,0.000169,-0.001687,0.180393,-0.003510,0.125696,0.003018,0.001524,0.007690,0.033293,-0.323675,0.008045,0.013594,0.003810,0.001513,
3.811667,-0.000286,-0.000177,0.001840,0.046282,-0.010216,0.107748,0.000526,-0.017411,0.010832,0.003184,-0.451213,0.007753,0.009576,-0.002663,-0.000759,
3.812500,0.001868,-0.000790,-0.001040,-0.070500,-0.008036,0.062070,0.008672,-0.023707,0.006402,-0.003784,-0.383684,0.010689,0.007128,0.000328,0.002613,
3.813333,0.001732,0.009379,0.000657,-0.154217,-0.008408,0.007122,0.019225,-0.009687,0.021171,0.029793,-0.254752,0.009373,0.015861,0.002865,-0.000880,
3.814167,0.000375,-0.023926,-0.000850,-0.230653,0.004387,-0.045800,0.021212,0.024237,-0.000027,0.053717,-0.097674,0.004411,0.000676,-0.008326,0.003559,
3.815000,0.001458,-0.044031,-0.001136,-0.277079,0.016620,-0.138338,0.004116,0.036451,0.018419,0.039611,0.151794,-0.012436,0.002769,0.007190,-0.002073,
3.815833,-0.004785,0.045867,0.001629,-0.321424,0.018831,-0.287407,-0.003366,0.040728,-0.009009,0.041185,0.507229,-0.028814,0.006418,-0.006432,-0.001756,
3.816667,-0.000807,0.134589,-0.002168,-0.406570,0.012546,-0.211909,0.028382,0.023371,0.005369,0.024104,0.606231,-0.013748,0.005212,0.008334,-0.003273,
3.817500,-0.003544,0.048848,0.002121,-0.353984,0.008293,-0.088195,0.028720,-0.016657,-0.002282,0.009723,0.235012,-0.005539,-0.005434,-0.006190,-0.002044,
3.818333,0.001193,-0.025759,-0.002135,-0.194780,0.015530,-0.056447,0.012155,-0.065906,-0.010641,0.000475,0.031976,-0.000984,0.000570,0.003862,0.000403,
3.819167,-0.000785,-0.036855,0.002304,-0.085639,-0.002829,0.032464,0.001887,-0.089261,-0.004178,-0.000144,-0.036167,-0.000390,-0.000280,-0.001183,-0.001576,
3.820000,0.000134,-0.042692,-0.000888,0.039397,-0.006201,0.089027,0.010128,-0.038801,-0.027167,0.005410,-0.058719,-0.005740,-0.010123,-0.001334,0.001936,
3.820833,-0.000780,-0.025085,0.000191,0.167412,-0.013058,0.087966,0.009722,0.073576,-0.018433,-0.013397,-0.050523,-0.000097,-0.008516,0.005392,-0.002488,
3.821667,-0.000780,-0.009498,0.000658,0.240029,-0.023106,0.103650,0.005246,0.168976,-0.037490,-0.015842,-0.005980,0.002501,-0.016669,-0.004044,0.002854,
3.822500,0.002424,0.011405,-0.001319,0.260074,-0.000650,0.091115,0.009822,0.109906,-0.015668,-0.012319,0.038393,0.008311,-0.013831,0.008353,-0.001876,
3.823333,-0.002002,0.024964,0.002042,0.249454,0.025915,0.077264,-0.004629,0.026655,-0.014599,-0.033060,0.003509,0.001463,-0.019534,-0.008075,0.001024,
3.824167,0.001354,0.026747,-0.002228,0.258010,0.042995,0.085331,-0.018427,-0.004052,-0.017628,-0.029713,-0.068259,0.001947,-0.009209,0.007248,-0.000958,
3.825000,-0.003682,0.011859,0.001891,0.285086,0.042030,0.100699,-0.052637,-0.003457,-0.004889,-0.040747,-0.099437,-0.005191,-0.014899,-0.006101,-0.002481,
3.825833,-0.000324,0.000268,-0.001775,0.164631,0.030179,0.054268,-0.021361,-0.006236,-0.017850,-0.018878,-0.104856,0.005377,-0.004556,0.002536,-0.000950,
3.826667,-0.002763,0.009036,0.001882,-0.080036,0.009105,-0.009699,0.007951,-0.011513,0.017991,0.022604,-0.113075,0.000081,0.001376,-0.002241,-0.002926,
3.827500,-0.001386,0.004558,-0.001026,-0.214705,-0.000453,-0.031840,0.005837,-0.029403,0.008382,0.012429,-0.153249,-0.000786,-0.004272,-0.008988,0.001661,
3.828333,0.001214,0.003273,-0.000274,-0.151337,-0.014526,-0.021774,0.030882,-0.054455,0.021117,0.002157,-0.115820,0.009028,0.005207,0.006555,-0.000005,
3.829167,0.003053,-0.001429,0.001239,-0.129023,-0.016035,-0.025139,0.042943,-0.051465,0.022677,-0.007000,-0.020156,0.004955,0.016844,-0.006118,0.006876,
3.830000,0.008861,-0.003494,-0.002133,-0.143466,-0.025432,-0.034326,0.028888,-0.028713,0.034931,-0.011388,0.039925,0.014304,0.022098,0.008380,0.005825,
3.830833,0.005058,-0.005420,0.001969,-0.069498,-0.046534,-0.049058,-0.004734,0.024749,0.029393,-0.023832,0.071325,0.013878,0.019595,-0.006410,0.006760,
3.831667,0.005528,-0.018862,-0.002323,0.049144,-0.066220,-0.045717,-0.005899,0.012302,0.007636,-0.011682,0.064627,0.013284,0.020778,0.009326,0.002203,
3.832500,-0.001631,-0.023586,0.002081,0.055827,-0.071513,-0.017627,-0.021613,-0.004285,0.020057,0.004917,0.051165,0.003668,0.010388,-0.001941,-0.001286,
3.833333,0.000060,-0.025907,-0.002062,-0.030286,-0.047150,-0.014878,-0.025182,-0.012827,0.022447,0.055565,0.026118,0.009592,0.005510,-0.002066,-0.000350,
3.834167,-0.002523,-0.009715,0.001119,-0.094806,-0.033247,-0.000891,-0.017679,-0.024935,0.001567,0.082430,0.003895,-0.013048,0.019568,0.002541,-0.004297,
3.835000,-0.003734,0.005707,-0.000279,-0.137312,-0.004921,0.018645,-0.009636,-0.030394,-0.001503,0.091618,-0.018334,-0.027023,0.006168,-0.001094,-0.001686,
3.835833,-0.002659,0.019078,-0.000151,-0.164398,0.038607,0.025831,0.015424,-0.031343,-0.006116,0.049105,-0.045686,-0.022573,-0.002346,0.010068,-0.005486,
3.836667,-0.004334,0.017528,0.000740,-0.206909,0.074619,0.039089,0.014167,-0.029150,-0.000650,0.024629,-0.039790,-0.006109,-0.007814,-0.003191,-0.000439,
3.837500,-0.000063,0.021300,-0.002031,-0.182930,0.090163,0.109036,-0.001961,-0.026398,-0.013774,-0.023002,-0.059937,-0.001131,-0.007649,0.007038,-0.003484,
3.838333,-0.003425,0.082989,0.002523,-0.115373,0.088922,0.076332,-0.030511,0.003938,-0.014042,-0.117887,-0.072341,-0.005352,-0.022765,-0.015248,-0.001193,
3.839167,0.001753,0.122602,-0.002230,0.010380,0.060994,-0.114752,-0.024174,0.020071,-0.024332,-0.124516,-0.103342,0.008083,-0.011361,0.010974,-0.000586,
3.840000,-0.001314,0.057248,0.002479,0.188641,-0.003978,-0.194474,-0.010560,0.010581,-0.028313,-0.057824,-0.050355,0.002554,-0.011742,-0.001733,-0.000441,
3.840833,0.000954,-0.064267,-0.001966,0.314678,-0.045705,-0.072372,-0.020785,-0.006954,-0.011947,-0.021557,0.138995,0.003395,-0.012625,0.002934,0.002141,
3.841667,-0.000444,-0.140795,0.001069,0.310902,-0.043877,-0.009698,-0.011806,-0.011141,-0.011250,-0.016455,0.250196,0.002672,-0.008674,0.002695,-0.001692,
3.842500,-0.000473,-0.157845,-0.000167,0.294864,-0.016941,0.011080,-0.000242,0.003085,0.005661,-0.013963,0.181332,-0.004033,-0.010118,-0.000467,0.001491,
3.843333,0.000410,-0.065061,-0.000638,0.276515,-0.021037,0.010706,0.012242,-0.000864,0.001693,-0.032061,0.144499,0.000678,-0.003990,0.011756,-0.000976,
3.844167,-0.001458,0.003297,0.001640,0.223667,-0.025328,0.019999,-0.000279,-0.029978,0.012383,-0.013354,0.129307,-0.000430,0.006504,-0.038456,0.002200,
3.845000,0.003082,0.026958,-0.001114,0.183915,-0.013018,0.027973,0.009053,-0.032350,0.017875,0.008156,0.028918,-0.009945,0.021666,0.010641,-0.000120,
3.845833,-0.001688,0.042426,0.001628,-0.002992,-0.019041,0.056302,0.014308,0.042398,0.026536,0.029896,-0.025480,-0.009854,0.011897,-0.005443,0.001220,
3.846667,0.003155,0.044101,-0.002494,-0.260664,-0.016380,0.046860,0.026485,0.127302,0.021710,0.061347,-0.023713,0.002139,0.007410,0.008203,0.001187,
3.847500,-0.000394,0.045465,0.002389,-0.307494,-0.025933,0.013547,0.024229,0.157831,0.016490,0.064987,-0.051588,-0.002644,0.005155,-0.017388,-0.000220,
3.848333,0.001398,0.016214,-0.001270,-0.233442,-0.019773,0.002004,0.017923,0.087762,0.028548,0.073636,-0.125493,0.010442,0.000407,0.002472,0.001578,
3.849167,0.000294,-0.018252,0.001177,-0.166009,-0.004308,-0.025133,0.019168,0.001637,0.010091,0.070669,-0.126169,0.003714,-0.001031,0.004462,-0.001352,
3.850000,-0.000807,-0.060606,-0.000036,-0.094920,0.003371,-0.017944,0.012247,-0.033251,0.003511,0.028472,-0.067105,0.010444,0.000389,-0.002107,0.002281,
3.850833,0.000842,-0.111228,-0.001246,-0.028060,-0.012917,-0.000515,0.011199,-0.042692,-0.007396,0.012809,-0.042358,0.020721,0.001470,0.009318,-0.002323,
3.851667,-0.001776,-0.146691,0.001512,-0.001082,-0.004200,-0.003946,0.013579,-0.045305,0.032427,-0.001503,-0.028945,0.004795,-0.004494,-0.004439,0.001316,
3.852500,0.001866,-0.036452,-0.001984,0.029095,0.039274,-0.014173,-0.001217,-0.054221,0.082367,-0.015083,-0.021122,0.005548,0.000665,0.014302,-0.001602,
3.853333,-0.002878,0.091396,0.001846,0.059782,0.056300,-0.009499,-0.005426,-0.053426,0.038494,-0.012228,-0.024886,-0.010585,-0.008983,-0.014564,-0.000396,
3.854167,0.001539,0.102497,-0.001953,0.087992,0.068524,-0.008665,-0.015992,-0.046287,-0.016810,-0.019503,-0.010523,-0.018119,-0.009777,0.006625,0.001119,
3.855000,-0.000295,0.069403,0.002336,0.104183,0.058371,-0.010726,-0.015835,-0.028085,-0.045864,-0.033109,-0.002023,-0.008659,-0.014066,-0.001932,-0.001329,
3.855833,0.000929,0.038258,-0.001766,0.069526,0.045955,0.010894,-0.019153,-0.017292,-0.063623,-0.028651,0.009441,-0.007076,-0.010852,0.000051,0.001874,
3.856667,0.000481,0.019644,0.000388,0.032942,0.036278,0.008615,-0.017260,-0.086551,-0.105636,-0.040784,0.002794,-0.008183,-0.016146,0.003271,-0.001938,
3.857500,-0.001335,0.002312,-0.000053,0.024290,0.012216,0.003977,-0.021454,-0.111665,-0.130844,-0.030615,0.001983,-0.002826,-0.013610,-0.004937,0.001884,
3.858333,0.002042,0.000333,-0.001256,-0.008041,-0.025197,0.004935,-0.015572,-0.002006,-0.160742,-0.024101,0.002581,-0.004586,0.004395,0.007475,-0.001614,
3.859167,-0.002357,0.002129,0.001660,-0.085890,-0.036476,-0.000543,-0.015946,0.144912,-0.115807,-0.018816,0.002149,0.001790,0.000038,-0.007862,0.001301,
3.860000,0.002555,-0.024951,-0.002749,-0.147317,-0.026689,0.005868,-0.006258,0.166269,0.006737,-0.008669,0.006954,0.017824,0.011624,0.007798,-0.000359,
3.860833,-0.002295,-0.040782,0.002759,-0.206349,-0.012803,0.006942,-0.004365,0.105999,0.065781,-0.000690,0.007702,0.005516,0.012305,-0.006274,-0.000184,
3.861667,0.002014,-0.046457,-0.001805,-0.107478,0.001644,0.014437,0.006205,0.024517,0.068533,0.008161,0.016772,0.010940,0.010019,0.006379,0.000451,
3.862500,-0.001305,0.015361,0.001718,-0.006766,-0.016937,-0.001698,0.006223,-0.025237,0.053786,0.013910,-0.003810,0.012421,0.009956,-0.000935,-0.001506,
3.863333,0.001328,0.153779,-0.000865,0.022441,-0.023548,0.007673,0.015063,-0.032290,0.068725,0.018841,-0.003360,0.010712,0.015778,0.002606,0.002794,
3.864167,0.001672,0.206078,0.000214,0.056647,-0.043529,0.006845,0.015022,-0.036628,0.072487,0.028899,0.009907,0.015874,0.021989,0.004944,-0.001602,
3.865000,-0.000731,0.077581,0.000832,0.049075,-0.055059,0.004664,0.020593,-0.029105,0.073034,0.017532,0.025946,0.010350,0.010120,-0.005672,0.002699,
3.865833,0.002206,-0.019694,-0.000839,0.004836,-0.056607,0.008907,0.022617,-0.034601,0.065046,0.017544,0.038221,0.008319,0.016938,0.008597,-0.001393,
3.866667,-0.002642,-0.036091,0.000997,-0.012515,-0.040686,0.006137,0.013463,-0.018942,0.046249,0.015813,0.056676,-0.004113,0.006573,-0.005200,0.000465,
3.867500,0.001662,-0.032430,-0.002203,0.077822,-0.004069,0.001681,0.013118,-0.014481,0.053576,0.012951,0.033116,-0.016124,0.002209,0.004814,-0.000578,
3.868333,-0.003498,-0.021774,0.002529,0.178883,-0.007003,-0.001574,-0.006190,-0.003674,0.009817,0.007587,-0.035182,-0.029553,0.004291,-0.005159,-0.001165,
3.869167,0.000493,-0.020848,-0.001437,0.161200,-0.010852,0.009782,-0.000364,-0.006357,0.013841,-0.012787,-0.041540,-0.027014,-0.000319,0.005620,0.001450,
3.870000,-0.001472,0.004290,0.002224,0.057964,-0.009172,-0.014316,-0.008010,-0.013372,-0.014320,-0.013681,-0.015235,-0.019041,-0.003090,0.000220,-0.002500,
3.870833,-0.000390,-0.015414,-0.001440,0.005508,0.020354,-0.002322,-0.018292,-0.002286,-0.019143,-0.019044,-0.001419,-0.005031,-0.005409,-0.001830,0.001024,
3.871667,0.000230,-0.059586,-0.000681,-0.031655,0.041603,-0.018342,-0.009237,-0.005899,-0.021253,-0.025666,-0.002211,0.002653,-0.021177,-0.009232,-0.001864,
3.872500,-0.000987,-0.091209,0.000382,-0.106565,0.051260,-0.012957,-0.013955,0.002500,-0.030594,-0.017667,0.000099,0.001111,-0.022634,-0.005508,0.002568,
3.873333,0.001758,-0.090345,-0.002066,-0.119223,0.030597,-0.003733,-0.010469,0.003235,-0.025071,-0.008161,0.002777,0.013382,-0.013456,0.009338,-0.001701,
3.874167,-0.002062,-0.088769,0.002504,-0.002143,0.007271,-0.004725,-0.014187,0.011269,-0.031416,-0.029791,0.002167,0.014747,-0.020508,-0.005589,0.001351,
3.875000,0.000675,-0.062700,-0.002081,0.069540,0.005427,-0.009541,-0.014270,0.000979,-0.027536,-0.006863,0.004534,0.015281,-0.012519,0.011051,-0.001551,
3.875833,-0.003153,0.039121,0.001572,0.013149,0.008617,-0.007973,-0.003388,0.005333,-0.029786,-0.006199,-0.000647,-0.004086,-0.023521,-0.021464,-0.003082,
3.876667,-0.000270,0.116911,-0.002252,-0.125070,0.015496,-0.001866,-0.009459,0.008474,-0.027054,-0.004594,0.000208,-0.009017,-0.015832,0.004290,0.000113,
3.877500,-0.000289,0.035496,0.001553,-0.511587,0.014488,-0.001609,-0.006383,0.009343,-0.002277,0.012761,-0.001137,0.005683,-0.010053,-0.003241,-0.002491,
3.878333,0.001827,-0.067916,-0.000594,-0.549496,0.006983,0.004841,0.002337,0.006423,0.001191,0.027260,0.002336,0.017135,0.000527,-0.001941,0.004057,
3.879167,0.002416,-0.085246,0.000617,-0.217918,-0.004414,0.004201,0.018996,0.000485,0.012170,0.015717,0.000863,0.014207,0.023081,0.008191,-0.000230,
3.880000,0.000715,-0.060541,0.001369,0.074009,-0.001846,0.012638,0.024526,0.004964,0.000741,0.018420,0.002835,0.010797,0.023278,-0.003971,0.003722,
3.880833,0.003441,-0.041037,-0.001082,0.284261,-0.002558,0.012140,0.024273,-0.003786,0.004125,0.014774,-0.004872,-0.002241,0.028891,0.007198,-0.000261,
3.881667,-0.001615,-0.020715,0.002570,0.558624,-0.002131,0.003619,0.010307,0.004144,-0.009573,0.024157,-0.005016,-0.032525,0.028022,-0.004990,0.001859,
3.882500,0.001875,-0.013847,-0.001559,0.727469,0.016512,-0.005451,0.010860,0.000377,0.001608,0.036193,-0.004925,-0.036096,0.028151,0.008907,-0.000140,
3.883333,-0.003178,-0.001131,0.002400,0.677605,0.021156,-0.004083,0.010219,-0.003035,0.003186,0.013342,-0.009482,-0.031557,0.009906,-0.003905,-0.002139,
3.884167,-0.000294,0.032915,-0.002491,0.570635,0.015595,0.010468,0.007163,0.006267,-0.005898,0.001984,0.002062,-0.013862,0.017083,0.004033,0.000287,
3.885000,0.000457,0.171982,0.001316,0.407170,0.012010,-0.004213,-0.000900,0.011342,-0.003053,-0.007501,0.000865,-0.006496,0.003304,0.001139,-0.000490,
3.885833,0.000599,0.170314,-0.001743,0.235120,0.012204,-0.007383,-0.009087,0.011422,-0.019697,-0.016342,0.001117,0.004439,-0.004264,-0.004801,0.003465,
3.886667,0.001355,0.042619,-0.001443,-0.227656,-0.004758,-0.006665,0.001978,0.004364,-0.014311,-0.019363,-0.004051,0.005677,-0.005461,-0.000053,-0.002803,
3.887500,-0.000481,-0.015283,0.000230,-0.851143,-0.020293,0.006491,-0.007378,0.002367,-0.033417,-0.016268,-0.001976,0.015386,-0.024539,-0.011314,0.001917,
3.888333,0.001806,-0.034785,-0.001758,-0.903663,-0.019630,-0.003917,-0.008622,-0.005868,-0.017336,-0.024006,-0.001510,0.025182,-0.031581,0.007957,-0.001296,
3.889167,-0.003228,-0.024248,0.002359,-0.554082,-0.010124,-0.006449,-0.017169,-0.002651,-0.000686,-0.020463,-0.004792,0.022710,-0.037103,-0.005408,-0.000693,
3.890000,0.001048,0.028251,-0.001763,-0.226823,-0.009810,-0.000637,-0.015776,-0.012710,0.016703,-0.018010,-0.001905,0.031165,-0.028429,0.009324,-0.001614,
3.890833,-0.002151,0.079998,0.002356,-0.093897,-0.019021,-0.000663,-0.015280,-0.005689,0.016995,-0.017269,-0.007502,0.018812,-0.022940,-0.002319,-0.001771,
3.891667,0.000909,0.034863,-0.001305,-0.072762,-0.013366,-0.003464,-0.018428,0.008788,0.025230,0.011507,-0.007852,0.012503,-0.020777,0.000253,0.001126,
3.892500,-0.000760,-0.006909,0.000680,-0.062070,-0.022315,-0.007962,-0.013015,0.007978,0.056220,-0.004936,-0.013489,0.011929,-0.004987,-0.000354,-0.001164,
3.893333,-0.000595,0.008377,0.000073,-0.054132,-0.019183,0.011488,-0.010334,0.004233,0.035361,0.018387,-0.022128,-0.003211,0.004301,-0.002764,0.002652,
3.894167,0.001249,0.002574,0.000687,-0.016964,-0.009474,-0.004919,0.014334,-0.009931,0.041088,0.016313,-0.009057,-0.023009,0.010456,0.007975,-0.002227,
3.895000,-0.002551,-0.032735,0.001303,0.030023,-0.013187,-0.004225,0.022993,-0.014683,0.025341,0.000737,0.030905,-0.025196,0.013491,-0.007809,0.000982,
3.895833,0.001279,-0.052264,-0.001590,0.050959,-0.000267,-0.000612,0.020371,-0.022386,0.024589,0.020941,0.048920,-0.011922,0.018449,0.007714,-0.000385,
3.896667,-0.001452,-0.049482,0.001928,0.055462,0.007620,0.010200,0.022640,-0.020836,0.010754,0.025040,0.008813,-0.004410,0.021065,-0.006951,0.000539,
3.897500,0.002685,-0.038766,-0.002794,0.086728,0.005288,0.006398,0.023390,-0.007592,-0.010522,0.023560,0.003651,0.000684,0.034925,0.006025,0.001007,
3.898333,-0.001265,-0.016947,0.001793,0.120972,0.001899,-0.000721,-0.014004,0.012616,-0.024902,0.025657,0.010684,-0.001997,0.026003,-0.003714,-0.000660,
3.899167,0.001346,-0.014116,-0.001706,0.149203,0.010890,0.010819,-0.031561,0.013240,-0.037426,-0.002240,0.007464,0.000197,0.022222,0.001976,0.001947,
3.900000,0.000142,-0.016723,0.001051,0.186537,0.006791,-0.000483,0.001233,0.004659,-0.017280,-0.026251,-0.004194,0.001606,0.022661,0.003866,-0.002006,
3.900833,0.000006,-0.024489,-0.000006,0.203971,0.007012,-0.010670,0.011589,0.003357,-0.017417,-0.006547,-0.020647,0.007404,0.010682,-0.001407,0.002434,
3.901667,0.001700,-0.012109,-0.000299,0.134041,0.005920,0.012454,0.021475,-0.003477,-0.006105,0.019954,-0.002394,0.007047,0.007484,0.010265,-0.001212,
3.902500,-0.002559,0.001018,0.000933,0.042922,0.003381,-0.002068,0.014105,0.005676,-0.012951,-0.012045,0.023690,0.004186,0.003291,-0.004613,0.001093,
3.903333,0.002032,-0.004198,-0.001803,0.055670,0.001394,-0.005716,0.004273,0.014040,-0.016899,0.000006,0.021269,0.007660,-0.007711,0.009956,-0.000723,
3.904167,-0.002077,-0.001983,0.002176,0.060655,-0.009636,0.010202,0.010440,0.003464,-0.007117,0.009281,-0.021579,-0.003293,-0.016074,-0.005389,-0.000097,
3.905000,0.002357,-0.008978,-0.002544,0.040824,-0.008942,0.004787,-0.025685,-0.022230,-0.033042,-0.035780,-0.047193,-0.007473,-0.017236,0.007024,0.000833,
3.905833,-0.001451,-0.003217,0.002196,0.090037,-0.003373,0.011295,-0.038187,-0.034043,-0.015021,-0.086784,-0.040332,-0.023805,-0.027999,0.001569,-0.002053,
3.906667,-0.000073,0.000190,-0.002068,0.172279,0.013340,0.024224,0.008335,-0.016710,-0.019880,-0.144472,0.061399,-0.014452,-0.024421,-0.024810,0.001162,
3.907500,-0.000529,0.008415,0.001145,0.113273,0.013135,-0.015332,0.037126,0.017570,-0.015113,-0.006947,0.024374,-0.004136,-0.019027,0.005245,-0.003101,
3.908333,-0.000988,0.011995,-0.000069,-0.005840,0.014487,-0.028497,0.008670,0.047898,0.005240,-0.008049,-0.014696,-0.004910,-0.019308,-0.003637,0.002399,
3.909167,0.002212,0.012917,-0.000827,-0.105916,0.007943,-0.030689,-0.037054,0.034607,-0.006267,-0.030566,-0.002715,0.006115,-0.008339,0.008663,-0.000649,
3.910000,-0.001915,0.011031,0.001619,-0.195095,0.006026,-0.013374,-0.020086,0.013254,0.022702,0.038439,0.040172,0.009566,-0.002608,-0.003175,0.001183,
3.910833,0.001584,0.010153,-0.001887,-0.243383,0.018657,0.022220,0.000223,-0.011425,0.023643,0.092479,0.061023,0.007585,-0.000446,-0.017487,-0.000955,
3.911667,-0.001176,0.017153,0.002387,-0.241378,0.018072,0.029087,-0.039445,-0.012574,0.029371,0.127298,0.065339,-0.003634,-0.001401,-0.005279,0.000565,
3.912500,0.002470,0.017230,-0.002649,-0.200434,0.008087,0.024921,-0.038680,-0.006821,0.028143,0.153893,0.081516,0.013608,0.009475,0.008424,0.002387,
3.913333,0.001535,0.018475,0.001927,-0.149301,-0.003516,0.039776,0.008325,0.011938,0.005470,0.058443,0.021839,0.016140,0.014175,0.001499,-0.000067,
3.914167,0.001971,0.016156,-0.000365,-0.113514,-0.007885,0.052897,0.006973,0.011661,-0.007822,-0.047204,-0.003649,0.012368,0.014526,0.002632,0.003732,
3.915000,0.000269,0.029806,-0.000064,-0.065206,-0.008533,-0.002551,0.024108,0.004251,0.007189,-0.029077,-0.081582,0.001694,0.016786,-0.006789,-0.001934,
3.915833,-0.002656,0.027074,0.000235,-0.020145,-0.020415,-0.021893,0.019300,-0.002510,0.019222,-0.084175,-0.187656,-0.011439,0.009052,-0.002958,0.000638,
3.916667,-0.002072,0.008723,-0.000993,-0.008442,-0.014693,-0.086761,0.024602,-0.019607,0.004774,-0.098832,-0.187698,-0.036021,0.010095,0.010618,-0.006101,
3.917500,-0.006677,-0.001598,0.002050,-0.026945,-0.013190,-0.057226,0.022320,-0.021102,0.015722,-0.054142,-0.156114,-0.025188,-0.005564,-0.004204,-0.003229,
3.918333,-0.000448,0.001299,-0.001927,0.028812,-0.014689,-0.034752,-0.004326,-0.017369,0.002771,0.007607,-0.139385,0.002306,-0.004811,0.009800,-0.002190,
3.919167,-0.001543,0.010243,0.002334,0.073778,-0.021480,-0.040844,0.005704,-0.007798,0.008181,0.044277,-0.029567,-0.006164,0.007020,-0.003216,0.000679,
3.920000,0.003315,-0.039005,-0.002103,0.108494,-0.014950,-0.004077,0.014418,-0.032673,0.005847,0.045773,0.083835,0.009080,0.003993,0.006802,0.002785,
3.920833,0.001308,-0.032459,0.000783,0.120828,-0.004867,0.013917,0.005488,-0.049268,-0.010954,0.019084,0.075609,0.007159,-0.002898,-0.000579,0.000314,
3.921667,0.001441,-0.037863,-0.001673,0.145332,0.000832,-0.020113,0.002565,-0.018674,-0.013397,0.047341,0.128005,0.000754,-0.005560,0.000126,0.002422,
3.922500,0.000662,-0.047735,0.000297,0.252097,0.003367,-0.032145,-0.009154,0.025538,-0.030483,0.036213,0.182330,-0.003716,-0.012530,0.006173,-0.002487,
3.923333,-0.000875,-0.050772,0.000129,0.362894,0.006396,0.021782,-0.014570,0.052240,-0.008364,0.007488,0.102366,-0.011123,-0.014492,-0.003492,0.001304,
3.924167,0.001559,-0.011566,-0.000343,0.309457,0.016630,0.074237,-0.010635,0.044184,-0.015561,-0.010485,0.053707,0.000974,-0.008996,0.010196,-0.001616,
3.925000,-0.002715,-0.011586,0.001473,0.261804,0.022165,0.041157,-0.011854,0.028070,-0.015006,-0.020177,-0.006503,0.000687,-0.010682,-0.017306,0.001420,
3.925833,0.001715,-0.046700,-0.001441,0.231108,0.016739,0.031349,-0.015642,0.025866,-0.003506,-0.009104,-0.056435,0.005873,-0.012978,0.005861,-0.001186,
3.926667,-0.001327,-0.061658,0.001292,0.027741,0.018659,0.021777,-0.013159,0.021543,-0.005636,-0.014675,-0.150875,0.004172,-0.010537,-0.008038,-0.000430,
3.927500,0.003266,0.031899,-0.001926,-0.267835,0.014796,0.023587,-0.006705,-0.000471,0.012166,-0.046985,-0.224077,0.019994,0.009622,0.002338,0.003993,
3.928333,0.000846,0.084754,0.002028,-0.416910,-0.003401,0.009923,-0.006212,-0.022791,-0.002138,-0.029144,-0.148971,0.018694,0.011953,-0.000547,0.000029,
3.929167,0.000719,0.031759,-0.000577,-0.379576,-0.003897,-0.016774,-0.011845,-0.029557,0.006684,-0.008469,0.179829,0.008654,0.010653,-0.001433,0.003088,
3.930000,0.001513,0.038479,0.000023,-0.352409,-0.012181,0.010326,0.009494,-0.031614,0.007805,-0.025403,0.325246,0.015191,0.013511,0.005327,-0.000867,
3.930833,-0.000895,0.057463,0.000776,-0.292702,-0.017427,0.038723,0.019031,-0.011272,0.006106,0.006570,0.309634,0.018756,0.008784,-0.007276,0.000828,
3.931667,0.001584,0.050716,-0.001063,-0.193727,0.000344,0.022632,0.037200,0.005821,0.008606,0.027791,0.184930,0.016433,0.016463,0.007604,-0.000983,
3.932500,-0.002345,0.047074,0.001677,-0.150656,-0.004956,-0.013543,0.033465,0.025302,0.004624,0.036744,0.027329,0.009573,0.011527,-0.007864,0.000871,
3.933333,0.003188,0.034323,-0.001990,-0.077806,-0.011669,-0.029532,0.032839,0.027476,0.016439,0.034358,-0.060281,0.004257,0.005268,0.007354,0.000286,
3.934167,-0.003486,0.011537,0.002736,0.100608,-0.023160,-0.021228,0.027675,0.006993,0.005757,-0.001776,-0.106089,0.004125,0.002264,-0.003810,-0.001366,
3.935000,0.000825,-0.007715,-0.001691,0.295460,-0.001746,-0.018398,0.025287,-0.009909,0.018661,-0.046002,-0.060922,0.004576,0.000530,0.004572,0.000492,
3.935833,-0.000513,-0.012004,0.001359,0.294505,0.036393,-0.032653,-0.005159,-0.015151,-0.012132,-0.045798,-0.091057,-0.013028,0.002046,0.001067,-0.001770,
3.936667,0.000283,-0.028201,-0.000472,0.189322,0.050509,-0.067970,0.008959,-0.011635,-0.021005,-0.037603,-0.066746,-0.017582,-0.008755,-0.001051,0.002069,
3.937500,0.000616,-0.049608,-0.000471,0.111028,0.027476,0.002136,0.053295,-0.001958,-0.020918,-0.060444,0.017261,-0.021767,-0.003953,0.003556,-0.002028,
3.938333,-0.002565,-0.048620,-0.000163,0.139637,0.009863,0.025067,-0.021385,0.004266,-0.024681,-0.049892,-0.020695,-0.037657,-0.005068,-0.008762,0.000739,
3.939167,0.001114,-0.033188,-0.001838,0.106757,0.005910,-0.024513,-0.042497,-0.001658,-0.017787,-0.049703,-0.035106,-0.030780,-0.009358,0.009446,-0.002143,
3.940000,-0.002690,-0.006374,0.001676,-0.018669,-0.007117,0.008725,-0.044215,0.013540,-0.011672,-0.042293,0.033801,-0.022813,-0.007824,-0.008653,0.000006,
3.940833,0.000518,0.010907,-0.002592,-0.128686,-0.023113,0.006826,-0.046054,0.019807,0.009088,0.163260,0.009308,-0.008730,-0.004441,0.004841,-0.001969,
3.941667,-0.003605,0.010106,0.001992,-0.210409,-0.037341,-0.010069,-0.067375,0.012120,-0.003104,0.112736,-0.054414,0.000940,-0.013249,-0.006379,-0.002117,
3.942500,0.001115,-0.006036,-0.001512,-0.263619,-0.016682,0.000760,-0.096248,-0.002033,0.021952,0.017953,-0.078299,0.000854,-0.009076,0.000105,0.001545,
3.943333,0.000336,-0.023022,0.000937,-0.265074,-0.024601,0.014292,-0.142565,-0.020039,0.003853,-0.021120,-0.125166,-0.001658,-0.005202,0.000488,-0.002121,
3.944167,0.000618,-0.044511,0.000486,-0.215806,-0.050253,0.025336,-0.075065,-0.037151,-0.004749,-0.022165,-0.118649,0.007905,-0.002392,-0.002331,0.002906,
3.945000,0.001810,-0.029907,0.000341,-0.123128,-0.046777,0.002615,0.022822,-0.044801,0.010191,0.012692,-0.164400,0.015362,0.005607,0.007972,-0.000922,
3.945833,-0.000665,-0.027114,0.000959,-0.152920,-0.040098,0.007317,0.064463,-0.019011,0.000768,0.056450,-0.211039,0.012487,0.002922,-0.008124,0.003640,
3.946667,0.003722,-0.002093,-0.001933,-0.320950,-0.019671,0.009994,0.081786,-0.005685,0.015966,0.042273,-0.148884,0.021417,0.007556,0.008279,0.000570,
3.947500,-0.002118,0.045476,0.002500,-0.218070,-0.002416,0.016600,0.066282,0.015496,0.009250,0.033630,-0.053787,0.016535,0.006996,-0.006450,0.000548,
3.948333,0.001958,0.063728,-0.001918,0.004059,0.015803,-0.002315,0.067878,0.014957,0.017242,0.030356,0.033807,0.016626,0.007648,0.008267,0.000068,
3.949167,-0.002818,0.066414,0.002209,0.223634,0.020962,-0.001735,0.069208,-0.011705,0.011407,0.009849,0.191862,-0.008657,0.000049,-0.002503,-0.001482,
3.950000,-0.001338,0.047294,-0.001447,0.439796,0.031842,0.013764,0.059613,-0.035626,0.020277,0.001536,0.198502,-0.026948,0.006781,0.002590,-0.001202,
3.950833,-0.002756,0.034767,0.000542,0.617907,0.034414,0.001611,0.032395,-0.064265,0.020349,-0.018717,0.100554,-0.016712,0.009990,0.004472,-0.003515,
3.951667,-0.000357,0.006421,0.000242,0.730441,0.061032,-0.002640,0.013351,-0.033974,-0.009592,-0.009740,0.101845,-0.006465,0.004485,-0.011811,0.002718,
3.952500,0.001740,-0.068854,-0.000364,0.819551,0.089266,-0.011805,0.002025,-0.031870,-0.000735,-0.021763,0.139154,0.006558,0.009951,0.006384,-0.001271,
3.953333,-0.001500,-0.104832,0.001012,0.725007,0.086614,-0.004214,-0.005707,-0.057640,-0.010766,-0.032079,0.112468,0.004827,0.001360,-0.008082,0.001456,
3.954167,0.002590,-0.061366,-0.002038,0.598124,0.047269,-0.012977,-0.010619,0.038403,-0.022144,-0.021794,0.082275,0.009109,-0.003130,0.008420,-0.000086,
3.955000,-0.001097,-0.034877,0.001473,0.261049,-0.014434,-0.022376,-0.008150,0.203003,-0.026029,-0.042204,0.052583,0.004466,-0.009927,-0.009265,0.000358,
3.955833,0.002853,-0.030388,-0.002951,-0.307680,-0.032592,-0.004791,-0.010528,0.291947,-0.009609,-0.037331,0.053011,-0.003597,-0.015524,0.002340,0.000348,
3.956667,-0.001125,0.039087,0.001473,-0.730362,-0.029039,0.000416,-0.015949,0.122571,-0.017753,-0.041678,0.046471,-0.005302,-0.014577,-0.004371,-0.001489,
3.957500,0.000855,0.136170,-0.001580,-0.792397,-0.011878,0.004384,-0.023068,-0.018595,-0.013389,-0.029168,0.025914,0.000732,-0.008919,0.001729,0.002172,
3.958333,0.001317,0.076389,0.001012,-0.573808,-0.022937,-0.001732,-0.022154,-0.056661,-0.012240,-0.019189,-0.003523,0.006424,-0.011975,0.003095,-0.001794,
3.959167,-0.000349,-0.022001,-0.000058,-0.369569,-0.028662,0.000077,-0.012322,-0.121977,-0.015073,0.000305,-0.010323,0.010559,-0.003754,-0.005004,0.002485,
3.960000,0.002263,-0.035556,-0.000061,-0.277766,-0.034256,-0.004072,-0.008715,-0.148665,0.013353,0.009783,-0.009831,0.005049,0.002622,0.007037,-0.000557,
3.960833,-0.001068,-0.023488,0.001768,-0.186764,-0.034239,0.009781,-0.014113,-0.105488,0.001320,0.013823,-0.031288,0.001491,0.003189,-0.006255,0.002203,
3.961667,0.002778,-0.008845,-0.001897,-0.072137,-0.030604,0.008072,-0.002304,-0.008207,0.016266,0.026925,-0.057407,0.003238,0.008325,0.010818,0.000388,
3.962500,-0.001763,-0.003544,0.002374,-0.031457,-0.030224,0.004994,-0.006128,0.066535,0.021569,0.026973,-0.066174,0.000213,0.012998,-0.005985,0.001017,
3.963333,0.002702,-0.005617,-0.002968,-0.043960,-0.013724,0.013521,0.016044,0.099013,0.022262,0.021301,-0.048244,0.006294,0.016446,0.005595,0.000733,
3.964167,-0.002137,-0.013559,0.001761,-0.114594,-0.029476,0.004815,0.019171,0.097580,0.017120,0.020754,-0.048286,-0.002792,0.004785,-0.005407,-0.002450,
3.965000,-0.000565,-0.025257,-0.001290,-0.159275,-0.032463,0.012757,0.019708,0.020698,0.010873,0.006272,-0.050542,-0.010118,0.007011,-0.000537,0.001539,
3.965833,-0.000366,-0.005487,0.000695,-0.100107,-0.017033,-0.001258,-0.012271,-0.048653,0.007946,0.010219,-0.051299,-0.000594,0.003287,0.003724,-0.002864,
3.966667,-0.000472,-0.004482,0.000698,-0.064210,0.007207,0.004735,-0.023225,-0.061973,-0.014552,0.007279,-0.023493,0.005167,0.000328,-0.004524,0.001734,
3.967500,0.001709,0.003059,-0.001739,-0.050934,0.020890,-0.005730,-0.013470,-0.060933,0.003194,0.001130,-0.007032,0.005623,0.007139,0.009205,-0.001909,
3.968333,-0.001911,0.054946,0.002234,-0.022665,0.030127,-0.017391,-0.023297,-0.048440,-0.002596,0.002466,-0.012057,0.002283,-0.002525,-0.004529,0.002381,
3.969167,0.000875,0.121544,-0.001878,-0.004773,0.039050,-0.013767,-0.005101,-0.047839,0.015991,0.004283,-0.016808,0.005353,-0.010200,0.001882,-0.001114,
3.970000,-0.003821,0.128054,0.002861,-0.031157,0.030426,-0.017897,0.008312,-0.038368,-0.000093,-0.012479,-0.051692,-0.001052,-0.015276,-0.005894,-0.002323,
